  20.000     228.00
  20.010     240.00
  20.020     251.00
  20.030     217.00
  20.040     211.00
  20.050     197.00
  20.060     220.00
  20.070     219.00
  20.080     233.00
  20.090     213.00
  20.100     207.00
  20.110     218.00
  20.120     253.00
  20.130     257.00
  20.140     234.00
  20.150     262.00
  20.160     224.00
  20.170     250.00
  20.180     232.00
  20.190     234.00
  20.200     246.00
  20.210     236.00
  20.220     231.00
  20.230     240.00
  20.240     229.00
  20.250     231.00
  20.260     232.00
  20.270     213.00
  20.280     223.00
  20.290     224.00
  20.300     237.00
  20.310     241.00
  20.320     245.00
  20.330     219.00
  20.340     222.00
  20.350     243.00
  20.360     232.00
  20.370     226.00
  20.380     244.00
  20.390     216.00
  20.400     225.00
  20.410     250.00
  20.420     243.00
  20.430     236.00
  20.440     222.00
  20.450     249.00
  20.460     237.00
  20.470     255.00
  20.480     247.00
  20.490     263.00
  20.500     262.00
  20.510     237.00
  20.520     231.00
  20.530     251.00
  20.540     222.00
  20.550     242.00
  20.560     240.00
  20.570     255.00
  20.580     238.00
  20.590     229.00
  20.600     238.00
  20.610     242.00
  20.620     219.00
  20.630     239.00
  20.640     209.00
  20.650     269.00
  20.660     239.00
  20.670     225.00
  20.680     227.00
  20.690     250.00
  20.700     252.00
  20.710     262.00
  20.720     244.00
  20.730     255.00
  20.740     235.00
  20.750     241.00
  20.760     254.00
  20.770     248.00
  20.780     238.00
  20.790     227.00
  20.800     257.00
  20.810     233.00
  20.820     221.00
  20.830     260.00
  20.840     215.00
  20.850     263.00
  20.860     258.00
  20.870     242.00
  20.880     287.00
  20.890     205.00
  20.900     258.00
  20.910     259.00
  20.920     252.00
  20.930     260.00
  20.940     263.00
  20.950     251.00
  20.960     236.00
  20.970     257.00
  20.980     263.00
  20.990     215.00
  21.000     252.00
  21.010     236.00
  21.020     236.00
  21.030     237.00
  21.040     234.00
  21.050     240.00
  21.060     243.00
  21.070     237.00
  21.080     224.00
  21.090     261.00
  21.100     225.00
  21.110     235.00
  21.120     220.00
  21.130     260.00
  21.140     223.00
  21.150     268.00
  21.160     244.00
  21.170     281.00
  21.180     240.00
  21.190     273.00
  21.200     232.00
  21.210     247.00
  21.220     228.00
  21.230     247.00
  21.240     224.00
  21.250     215.00
  21.260     241.00
  21.270     273.00
  21.280     270.00
  21.290     254.00
  21.300     255.00
  21.310     274.00
  21.320     276.00
  21.330     237.00
  21.340     252.00
  21.350     241.00
  21.360     245.00
  21.370     264.00
  21.380     278.00
  21.390     250.00
  21.400     276.00
  21.410     230.00
  21.420     242.00
  21.430     241.00
  21.440     235.00
  21.450     248.00
  21.460     243.00
  21.470     256.00
  21.480     231.00
  21.490     252.00
  21.500     253.00
  21.510     245.00
  21.520     254.00
  21.530     251.00
  21.540     265.00
  21.550     227.00
  21.560     257.00
  21.570     262.00
  21.580     230.00
  21.590     278.00
  21.600     263.00
  21.610     242.00
  21.620     245.00
  21.630     283.00
  21.640     280.00
  21.650     257.00
  21.660     258.00
  21.670     255.00
  21.680     230.00
  21.690     248.00
  21.700     243.00
  21.710     235.00
  21.720     263.00
  21.730     257.00
  21.740     252.00
  21.750     276.00
  21.760     250.00
  21.770     258.00
  21.780     256.00
  21.790     259.00
  21.800     248.00
  21.810     225.00
  21.820     283.00
  21.830     261.00
  21.840     254.00
  21.850     260.00
  21.860     272.00
  21.870     230.00
  21.880     247.00
  21.890     230.00
  21.900     249.00
  21.910     267.00
  21.920     267.00
  21.930     265.00
  21.940     273.00
  21.950     256.00
  21.960     250.00
  21.970     281.00
  21.980     283.00
  21.990     272.00
  22.000     229.00
  22.010     253.00
  22.020     288.00
  22.030     252.00
  22.040     237.00
  22.050     226.00
  22.060     260.00
  22.070     250.00
  22.080     234.00
  22.090     260.00
  22.100     244.00
  22.110     245.00
  22.120     232.00
  22.130     234.00
  22.140     255.00
  22.150     279.00
  22.160     220.00
  22.170     285.00
  22.180     253.00
  22.190     252.00
  22.200     264.00
  22.210     248.00
  22.220     253.00
  22.230     260.00
  22.240     241.00
  22.250     256.00
  22.260     237.00
  22.270     252.00
  22.280     253.00
  22.290     249.00
  22.300     275.00
  22.310     253.00
  22.320     246.00
  22.330     241.00
  22.340     258.00
  22.350     250.00
  22.360     252.00
  22.370     254.00
  22.380     249.00
  22.390     242.00
  22.400     244.00
  22.410     251.00
  22.420     270.00
  22.430     230.00
  22.440     263.00
  22.450     270.00
  22.460     227.00
  22.470     266.00
  22.480     285.00
  22.490     269.00
  22.500     237.00
  22.510     230.00
  22.520     241.00
  22.530     239.00
  22.540     267.00
  22.550     286.00
  22.560     262.00
  22.570     242.00
  22.580     283.00
  22.590     264.00
  22.600     264.00
  22.610     269.00
  22.620     250.00
  22.630     273.00
  22.640     244.00
  22.650     249.00
  22.660     246.00
  22.670     272.00
  22.680     260.00
  22.690     245.00
  22.700     262.00
  22.710     257.00
  22.720     272.00
  22.730     231.00
  22.740     240.00
  22.750     238.00
  22.760     261.00
  22.770     273.00
  22.780     242.00
  22.790     284.00
  22.800     275.00
  22.810     271.00
  22.820     253.00
  22.830     259.00
  22.840     266.00
  22.850     235.00
  22.860     249.00
  22.870     237.00
  22.880     250.00
  22.890     240.00
  22.900     252.00
  22.910     247.00
  22.920     250.00
  22.930     269.00
  22.940     262.00
  22.950     260.00
  22.960     270.00
  22.970     245.00
  22.980     251.00
  22.990     248.00
  23.000     251.00
  23.010     264.00
  23.020     266.00
  23.030     240.00
  23.040     281.00
  23.050     260.00
  23.060     243.00
  23.070     243.00
  23.080     222.00
  23.090     255.00
  23.100     228.00
  23.110     223.00
  23.120     259.00
  23.130     258.00
  23.140     253.00
  23.150     274.00
  23.160     267.00
  23.170     270.00
  23.180     225.00
  23.190     266.00
  23.200     274.00
  23.210     248.00
  23.220     262.00
  23.230     266.00
  23.240     255.00
  23.250     238.00
  23.260     275.00
  23.270     271.00
  23.280     259.00
  23.290     220.00
  23.300     215.00
  23.310     267.00
  23.320     266.00
  23.330     223.00
  23.340     275.00
  23.350     276.00
  23.360     266.00
  23.370     265.00
  23.380     262.00
  23.390     247.00
  23.400     267.00
  23.410     262.00
  23.420     270.00
  23.430     281.00
  23.440     244.00
  23.450     241.00
  23.460     267.00
  23.470     255.00
  23.480     271.00
  23.490     253.00
  23.500     252.00
  23.510     246.00
  23.520     266.00
  23.530     262.00
  23.540     271.00
  23.550     233.00
  23.560     256.00
  23.570     263.00
  23.580     229.00
  23.590     260.00
  23.600     257.00
  23.610     258.00
  23.620     246.00
  23.630     278.00
  23.640     220.00
  23.650     243.00
  23.660     252.00
  23.670     243.00
  23.680     283.00
  23.690     237.00
  23.700     294.00
  23.710     285.00
  23.720     240.00
  23.730     277.00
  23.740     268.00
  23.750     258.00
  23.760     232.00
  23.770     260.00
  23.780     237.00
  23.790     286.00
  23.800     243.00
  23.810     239.00
  23.820     288.00
  23.830     261.00
  23.840     254.00
  23.850     274.00
  23.860     250.00
  23.870     229.00
  23.880     252.00
  23.890     267.00
  23.900     269.00
  23.910     260.00
  23.920     259.00
  23.930     267.00
  23.940     237.00
  23.950     253.00
  23.960     249.00
  23.970     227.00
  23.980     260.00
  23.990     246.00
  24.000     254.00
  24.010     272.00
  24.020     248.00
  24.030     264.00
  24.040     241.00
  24.050     251.00
  24.060     265.00
  24.070     274.00
  24.080     256.00
  24.090     266.00
  24.100     254.00
  24.110     267.00
  24.120     264.00
  24.130     256.00
  24.140     232.00
  24.150     235.00
  24.160     240.00
  24.170     294.00
  24.180     258.00
  24.190     257.00
  24.200     284.00
  24.210     271.00
  24.220     264.00
  24.230     264.00
  24.240     245.00
  24.250     256.00
  24.260     246.00
  24.270     248.00
  24.280     247.00
  24.290     239.00
  24.300     257.00
  24.310     247.00
  24.320     241.00
  24.330     243.00
  24.340     232.00
  24.350     242.00
  24.360     239.00
  24.370     266.00
  24.380     239.00
  24.390     262.00
  24.400     233.00
  24.410     267.00
  24.420     268.00
  24.430     262.00
  24.440     243.00
  24.450     254.00
  24.460     246.00
  24.470     241.00
  24.480     259.00
  24.490     253.00
  24.500     246.00
  24.510     271.00
  24.520     274.00
  24.530     248.00
  24.540     277.00
  24.550     245.00
  24.560     276.00
  24.570     261.00
  24.580     255.00
  24.590     262.00
  24.600     263.00
  24.610     261.00
  24.620     259.00
  24.630     247.00
  24.640     250.00
  24.650     270.00
  24.660     246.00
  24.670     266.00
  24.680     260.00
  24.690     239.00
  24.700     258.00
  24.710     262.00
  24.720     246.00
  24.730     264.00
  24.740     258.00
  24.750     242.00
  24.760     243.00
  24.770     254.00
  24.780     291.00
  24.790     245.00
  24.800     262.00
  24.810     274.00
  24.820     259.00
  24.830     259.00
  24.840     267.00
  24.850     237.00
  24.860     251.00
  24.870     249.00
  24.880     258.00
  24.890     264.00
  24.900     252.00
  24.910     290.00
  24.920     239.00
  24.930     257.00
  24.940     288.00
  24.950     244.00
  24.960     280.00
  24.970     249.00
  24.980     253.00
  24.990     253.00
  25.000     264.00
  25.010     252.00
  25.020     267.00
  25.030     264.00
  25.040     243.00
  25.050     236.00
  25.060     255.00
  25.070     262.00
  25.080     239.00
  25.090     262.00
  25.100     259.00
  25.110     259.00
  25.120     268.00
  25.130     280.00
  25.140     249.00
  25.150     242.00
  25.160     257.00
  25.170     233.00
  25.180     272.00
  25.190     275.00
  25.200     256.00
  25.210     278.00
  25.220     250.00
  25.230     249.00
  25.240     258.00
  25.250     267.00
  25.260     274.00
  25.270     261.00
  25.280     275.00
  25.290     257.00
  25.300     254.00
  25.310     275.00
  25.320     274.00
  25.330     235.00
  25.340     273.00
  25.350     258.00
  25.360     261.00
  25.370     281.00
  25.380     267.00
  25.390     241.00
  25.400     242.00
  25.410     286.00
  25.420     279.00
  25.430     287.00
  25.440     235.00
  25.450     249.00
  25.460     244.00
  25.470     266.00
  25.480     274.00
  25.490     280.00
  25.500     264.00
  25.510     239.00
  25.520     253.00
  25.530     261.00
  25.540     248.00
  25.550     293.00
  25.560     273.00
  25.570     263.00
  25.580     232.00
  25.590     249.00
  25.600     268.00
  25.610     262.00
  25.620     305.00
  25.630     268.00
  25.640     238.00
  25.650     238.00
  25.660     245.00
  25.670     229.00
  25.680     262.00
  25.690     249.00
  25.700     278.00
  25.710     243.00
  25.720     251.00
  25.730     288.00
  25.740     260.00
  25.750     239.00
  25.760     276.00
  25.770     265.00
  25.780     272.00
  25.790     254.00
  25.800     239.00
  25.810     278.00
  25.820     250.00
  25.830     249.00
  25.840     259.00
  25.850     250.00
  25.860     237.00
  25.870     266.00
  25.880     271.00
  25.890     249.00
  25.900     286.00
  25.910     263.00
  25.920     263.00
  25.930     239.00
  25.940     262.00
  25.950     262.00
  25.960     233.00
  25.970     227.00
  25.980     250.00
  25.990     240.00
  26.000     257.00
  26.010     268.00
  26.020     248.00
  26.030     260.00
  26.040     238.00
  26.050     265.00
  26.060     264.00
  26.070     242.00
  26.080     256.00
  26.090     261.00
  26.100     252.00
  26.110     221.00
  26.120     280.00
  26.130     281.00
  26.140     238.00
  26.150     261.00
  26.160     239.00
  26.170     269.00
  26.180     264.00
  26.190     252.00
  26.200     230.00
  26.210     219.00
  26.220     243.00
  26.230     266.00
  26.240     223.00
  26.250     263.00
  26.260     243.00
  26.270     276.00
  26.280     246.00
  26.290     222.00
  26.300     278.00
  26.310     239.00
  26.320     259.00
  26.330     271.00
  26.340     251.00
  26.350     268.00
  26.360     287.00
  26.370     243.00
  26.380     249.00
  26.390     291.00
  26.400     263.00
  26.410     266.00
  26.420     285.00
  26.430     279.00
  26.440     273.00
  26.450     255.00
  26.460     237.00
  26.470     259.00
  26.480     276.00
  26.490     226.00
  26.500     288.00
  26.510     266.00
  26.520     277.00
  26.530     267.00
  26.540     252.00
  26.550     257.00
  26.560     281.00
  26.570     288.00
  26.580     266.00
  26.590     290.00
  26.600     223.00
  26.610     260.00
  26.620     314.00
  26.630     265.00
  26.640     253.00
  26.650     291.00
  26.660     263.00
  26.670     288.00
  26.680     292.00
  26.690     262.00
  26.700     259.00
  26.710     239.00
  26.720     264.00
  26.730     292.00
  26.740     261.00
  26.750     242.00
  26.760     278.00
  26.770     260.00
  26.780     240.00
  26.790     262.00
  26.800     246.00
  26.810     267.00
  26.820     275.00
  26.830     241.00
  26.840     256.00
  26.850     240.00
  26.860     266.00
  26.870     247.00
  26.880     247.00
  26.890     274.00
  26.900     275.00
  26.910     244.00
  26.920     279.00
  26.930     252.00
  26.940     263.00
  26.950     245.00
  26.960     250.00
  26.970     308.00
  26.980     302.00
  26.990     243.00
  27.000     250.00
  27.010     309.00
  27.020     276.00
  27.030     270.00
  27.040     283.00
  27.050     261.00
  27.060     254.00
  27.070     286.00
  27.080     254.00
  27.090     246.00
  27.100     241.00
  27.110     260.00
  27.120     280.00
  27.130     245.00
  27.140     262.00
  27.150     274.00
  27.160     289.00
  27.170     251.00
  27.180     293.00
  27.190     281.00
  27.200     272.00
  27.210     270.00
  27.220     244.00
  27.230     269.00
  27.240     254.00
  27.250     227.00
  27.260     249.00
  27.270     267.00
  27.280     290.00
  27.290     252.00
  27.300     273.00
  27.310     238.00
  27.320     278.00
  27.330     246.00
  27.340     272.00
  27.350     257.00
  27.360     286.00
  27.370     263.00
  27.380     266.00
  27.390     276.00
  27.400     207.00
  27.410     281.00
  27.420     250.00
  27.430     278.00
  27.440     294.00
  27.450     283.00
  27.460     259.00
  27.470     280.00
  27.480     265.00
  27.490     288.00
  27.500     273.00
  27.510     268.00
  27.520     254.00
  27.530     237.00
  27.540     280.00
  27.550     292.00
  27.560     297.00
  27.570     294.00
  27.580     277.00
  27.590     250.00
  27.600     296.00
  27.610     274.00
  27.620     290.00
  27.630     267.00
  27.640     284.00
  27.650     256.00
  27.660     285.00
  27.670     253.00
  27.680     259.00
  27.690     258.00
  27.700     277.00
  27.710     291.00
  27.720     271.00
  27.730     284.00
  27.740     275.00
  27.750     267.00
  27.760     266.00
  27.770     276.00
  27.780     320.00
  27.790     266.00
  27.800     252.00
  27.810     282.00
  27.820     277.00
  27.830     280.00
  27.840     272.00
  27.850     234.00
  27.860     263.00
  27.870     238.00
  27.880     279.00
  27.890     277.00
  27.900     247.00
  27.910     253.00
  27.920     268.00
  27.930     287.00
  27.940     275.00
  27.950     303.00
  27.960     298.00
  27.970     257.00
  27.980     283.00
  27.990     255.00
  28.000     272.00
  28.010     281.00
  28.020     277.00
  28.030     276.00
  28.040     269.00
  28.050     251.00
  28.060     286.00
  28.070     265.00
  28.080     272.00
  28.090     268.00
  28.100     260.00
  28.110     239.00
  28.120     285.00
  28.130     278.00
  28.140     225.00
  28.150     262.00
  28.160     293.00
  28.170     274.00
  28.180     277.00
  28.190     267.00
  28.200     288.00
  28.210     264.00
  28.220     278.00
  28.230     274.00
  28.240     301.00
  28.250     284.00
  28.260     277.00
  28.270     292.00
  28.280     295.00
  28.290     304.00
  28.300     298.00
  28.310     279.00
  28.320     264.00
  28.330     295.00
  28.340     295.00
  28.350     273.00
  28.360     303.00
  28.370     301.00
  28.380     275.00
  28.390     312.00
  28.400     315.00
  28.410     287.00
  28.420     315.00
  28.430     324.00
  28.440     332.00
  28.450     356.00
  28.460     373.00
  28.470     386.00
  28.480     427.00
  28.490     475.00
  28.500     610.00
  28.510     790.00
  28.520    1017.00
  28.530    1331.00
  28.540    1937.00
  28.550    2637.00
  28.560    3800.00
  28.570    5336.00
  28.580    7163.00
  28.590    9294.00
  28.600   11492.00
  28.610   12972.00
  28.620   13805.00
  28.630   13767.00
  28.640   12307.00
  28.650   10663.00
  28.660    8088.00
  28.670    5942.00
  28.680    3897.00
  28.690    2431.00
  28.700    1747.00
  28.710    1213.00
  28.720     902.00
  28.730     737.00
  28.740     691.00
  28.750     618.00
  28.760     569.00
  28.770     545.00
  28.780     546.00
  28.790     497.00
  28.800     453.00
  28.810     429.00
  28.820     401.00
  28.830     383.00
  28.840     346.00
  28.850     341.00
  28.860     339.00
  28.870     312.00
  28.880     307.00
  28.890     317.00
  28.900     308.00
  28.910     272.00
  28.920     286.00
  28.930     294.00
  28.940     284.00
  28.950     284.00
  28.960     287.00
  28.970     309.00
  28.980     290.00
  28.990     300.00
  29.000     270.00
  29.010     267.00
  29.020     284.00
  29.030     315.00
  29.040     304.00
  29.050     277.00
  29.060     275.00
  29.070     272.00
  29.080     260.00
  29.090     268.00
  29.100     266.00
  29.110     264.00
  29.120     283.00
  29.130     287.00
  29.140     295.00
  29.150     281.00
  29.160     232.00
  29.170     276.00
  29.180     290.00
  29.190     274.00
  29.200     298.00
  29.210     294.00
  29.220     277.00
  29.230     311.00
  29.240     269.00
  29.250     247.00
  29.260     241.00
  29.270     278.00
  29.280     243.00
  29.290     265.00
  29.300     257.00
  29.310     288.00
  29.320     292.00
  29.330     262.00
  29.340     286.00
  29.350     274.00
  29.360     279.00
  29.370     258.00
  29.380     246.00
  29.390     284.00
  29.400     238.00
  29.410     272.00
  29.420     285.00
  29.430     279.00
  29.440     267.00
  29.450     250.00
  29.460     271.00
  29.470     270.00
  29.480     279.00
  29.490     265.00
  29.500     280.00
  29.510     280.00
  29.520     261.00
  29.530     273.00
  29.540     256.00
  29.550     263.00
  29.560     260.00
  29.570     279.00
  29.580     264.00
  29.590     298.00
  29.600     237.00
  29.610     256.00
  29.620     265.00
  29.630     268.00
  29.640     290.00
  29.650     256.00
  29.660     271.00
  29.670     265.00
  29.680     255.00
  29.690     266.00
  29.700     249.00
  29.710     260.00
  29.720     286.00
  29.730     282.00
  29.740     264.00
  29.750     239.00
  29.760     251.00
  29.770     266.00
  29.780     232.00
  29.790     271.00
  29.800     304.00
  29.810     263.00
  29.820     243.00
  29.830     278.00
  29.840     254.00
  29.850     285.00
  29.860     261.00
  29.870     229.00
  29.880     267.00
  29.890     298.00
  29.900     248.00
  29.910     277.00
  29.920     279.00
  29.930     239.00
  29.940     254.00
  29.950     256.00
  29.960     259.00
  29.970     271.00
  29.980     268.00
  29.990     251.00
  30.000     266.00
  30.010     254.00
  30.020     245.00
  30.030     280.00
  30.040     260.00
  30.050     286.00
  30.060     296.00
  30.070     256.00
  30.080     247.00
  30.090     247.00
  30.100     252.00
  30.110     257.00
  30.120     245.00
  30.130     275.00
  30.140     287.00
  30.150     235.00
  30.160     301.00
  30.170     244.00
  30.180     268.00
  30.190     234.00
  30.200     278.00
  30.210     258.00
  30.220     258.00
  30.230     270.00
  30.240     290.00
  30.250     252.00
  30.260     224.00
  30.270     267.00
  30.280     272.00
  30.290     250.00
  30.300     243.00
  30.310     271.00
  30.320     271.00
  30.330     266.00
  30.340     265.00
  30.350     263.00
  30.360     277.00
  30.370     281.00
  30.380     252.00
  30.390     270.00
  30.400     255.00
  30.410     261.00
  30.420     251.00
  30.430     284.00
  30.440     256.00
  30.450     268.00
  30.460     245.00
  30.470     275.00
  30.480     237.00
  30.490     296.00
  30.500     270.00
  30.510     270.00
  30.520     267.00
  30.530     266.00
  30.540     281.00
  30.550     263.00
  30.560     279.00
  30.570     274.00
  30.580     248.00
  30.590     274.00
  30.600     291.00
  30.610     276.00
  30.620     308.00
  30.630     265.00
  30.640     274.00
  30.650     253.00
  30.660     263.00
  30.670     279.00
  30.680     254.00
  30.690     299.00
  30.700     271.00
  30.710     300.00
  30.720     262.00
  30.730     255.00
  30.740     283.00
  30.750     260.00
  30.760     274.00
  30.770     286.00
  30.780     229.00
  30.790     247.00
  30.800     273.00
  30.810     240.00
  30.820     263.00
  30.830     259.00
  30.840     260.00
  30.850     278.00
  30.860     267.00
  30.870     281.00
  30.880     292.00
  30.890     281.00
  30.900     280.00
  30.910     273.00
  30.920     258.00
  30.930     257.00
  30.940     277.00
  30.950     281.00
  30.960     275.00
  30.970     297.00
  30.980     263.00
  30.990     297.00
  31.000     264.00
  31.010     280.00
  31.020     266.00
  31.030     292.00
  31.040     271.00
  31.050     270.00
  31.060     232.00
  31.070     268.00
  31.080     276.00
  31.090     291.00
  31.100     292.00
  31.110     303.00
  31.120     261.00
  31.130     251.00
  31.140     280.00
  31.150     285.00
  31.160     274.00
  31.170     268.00
  31.180     306.00
  31.190     281.00
  31.200     258.00
  31.210     262.00
  31.220     253.00
  31.230     301.00
  31.240     275.00
  31.250     305.00
  31.260     288.00
  31.270     248.00
  31.280     263.00
  31.290     273.00
  31.300     269.00
  31.310     304.00
  31.320     291.00
  31.330     278.00
  31.340     257.00
  31.350     310.00
  31.360     301.00
  31.370     283.00
  31.380     300.00
  31.390     297.00
  31.400     311.00
  31.410     271.00
  31.420     266.00
  31.430     297.00
  31.440     288.00
  31.450     277.00
  31.460     291.00
  31.470     279.00
  31.480     289.00
  31.490     273.00
  31.500     283.00
  31.510     276.00
  31.520     269.00
  31.530     267.00
  31.540     271.00
  31.550     268.00
  31.560     257.00
  31.570     252.00
  31.580     266.00
  31.590     257.00
  31.600     249.00
  31.610     286.00
  31.620     286.00
  31.630     282.00
  31.640     281.00
  31.650     251.00
  31.660     288.00
  31.670     309.00
  31.680     260.00
  31.690     276.00
  31.700     284.00
  31.710     277.00
  31.720     286.00
  31.730     289.00
  31.740     249.00
  31.750     292.00
  31.760     253.00
  31.770     241.00
  31.780     296.00
  31.790     272.00
  31.800     268.00
  31.810     253.00
  31.820     249.00
  31.830     270.00
  31.840     255.00
  31.850     337.00
  31.860     261.00
  31.870     259.00
  31.880     276.00
  31.890     273.00
  31.900     292.00
  31.910     264.00
  31.920     267.00
  31.930     258.00
  31.940     295.00
  31.950     272.00
  31.960     267.00
  31.970     288.00
  31.980     237.00
  31.990     264.00
  32.000     271.00
  32.010     254.00
  32.020     266.00
  32.030     265.00
  32.040     283.00
  32.050     291.00
  32.060     296.00
  32.070     284.00
  32.080     262.00
  32.090     292.00
  32.100     272.00
  32.110     257.00
  32.120     264.00
  32.130     302.00
  32.140     254.00
  32.150     289.00
  32.160     295.00
  32.170     259.00
  32.180     242.00
  32.190     281.00
  32.200     296.00
  32.210     290.00
  32.220     253.00
  32.230     289.00
  32.240     270.00
  32.250     282.00
  32.260     290.00
  32.270     274.00
  32.280     295.00
  32.290     258.00
  32.300     250.00
  32.310     296.00
  32.320     292.00
  32.330     292.00
  32.340     264.00
  32.350     280.00
  32.360     262.00
  32.370     269.00
  32.380     265.00
  32.390     278.00
  32.400     286.00
  32.410     271.00
  32.420     265.00
  32.430     270.00
  32.440     264.00
  32.450     260.00
  32.460     283.00
  32.470     264.00
  32.480     270.00
  32.490     291.00
  32.500     288.00
  32.510     322.00
  32.520     267.00
  32.530     272.00
  32.540     281.00
  32.550     278.00
  32.560     255.00
  32.570     269.00
  32.580     260.00
  32.590     290.00
  32.600     257.00
  32.610     249.00
  32.620     268.00
  32.630     276.00
  32.640     288.00
  32.650     250.00
  32.660     317.00
  32.670     264.00
  32.680     272.00
  32.690     305.00
  32.700     274.00
  32.710     301.00
  32.720     268.00
  32.730     286.00
  32.740     273.00
  32.750     281.00
  32.760     276.00
  32.770     257.00
  32.780     263.00
  32.790     271.00
  32.800     273.00
  32.810     294.00
  32.820     268.00
  32.830     280.00
  32.840     298.00
  32.850     304.00
  32.860     278.00
  32.870     287.00
  32.880     294.00
  32.890     304.00
  32.900     289.00
  32.910     259.00
  32.920     288.00
  32.930     291.00
  32.940     289.00
  32.950     289.00
  32.960     287.00
  32.970     303.00
  32.980     299.00
  32.990     317.00
  33.000     340.00
  33.010     310.00
  33.020     345.00
  33.030     341.00
  33.040     399.00
  33.050     471.00
  33.060     514.00
  33.070     687.00
  33.080     867.00
  33.090    1208.00
  33.100    1644.00
  33.110    2245.00
  33.120    2945.00
  33.130    3673.00
  33.140    4496.00
  33.150    4781.00
  33.160    4896.00
  33.170    4519.00
  33.180    3920.00
  33.190    3097.00
  33.200    2362.00
  33.210    1571.00
  33.220    1152.00
  33.230     802.00
  33.240     639.00
  33.250     474.00
  33.260     442.00
  33.270     426.00
  33.280     392.00
  33.290     383.00
  33.300     379.00
  33.310     357.00
  33.320     369.00
  33.330     349.00
  33.340     333.00
  33.350     342.00
  33.360     288.00
  33.370     304.00
  33.380     297.00
  33.390     314.00
  33.400     261.00
  33.410     302.00
  33.420     316.00
  33.430     314.00
  33.440     255.00
  33.450     259.00
  33.460     290.00
  33.470     277.00
  33.480     275.00
  33.490     279.00
  33.500     286.00
  33.510     305.00
  33.520     280.00
  33.530     294.00
  33.540     248.00
  33.550     275.00
  33.560     280.00
  33.570     273.00
  33.580     295.00
  33.590     304.00
  33.600     270.00
  33.610     264.00
  33.620     274.00
  33.630     295.00
  33.640     295.00
  33.650     311.00
  33.660     286.00
  33.670     256.00
  33.680     283.00
  33.690     285.00
  33.700     260.00
  33.710     284.00
  33.720     273.00
  33.730     271.00
  33.740     264.00
  33.750     279.00
  33.760     270.00
  33.770     261.00
  33.780     274.00
  33.790     277.00
  33.800     259.00
  33.810     258.00
  33.820     281.00
  33.830     292.00
  33.840     264.00
  33.850     292.00
  33.860     250.00
  33.870     253.00
  33.880     269.00
  33.890     292.00
  33.900     289.00
  33.910     295.00
  33.920     259.00
  33.930     287.00
  33.940     288.00
  33.950     281.00
  33.960     301.00
  33.970     289.00
  33.980     257.00
  33.990     245.00
  34.000     268.00
  34.010     270.00
  34.020     260.00
  34.030     270.00
  34.040     288.00
  34.050     298.00
  34.060     285.00
  34.070     269.00
  34.080     298.00
  34.090     305.00
  34.100     248.00
  34.110     274.00
  34.120     289.00
  34.130     279.00
  34.140     274.00
  34.150     272.00
  34.160     309.00
  34.170     289.00
  34.180     283.00
  34.190     279.00
  34.200     278.00
  34.210     257.00
  34.220     310.00
  34.230     280.00
  34.240     247.00
  34.250     274.00
  34.260     301.00
  34.270     251.00
  34.280     245.00
  34.290     277.00
  34.300     264.00
  34.310     272.00
  34.320     290.00
  34.330     259.00
  34.340     246.00
  34.350     259.00
  34.360     297.00
  34.370     249.00
  34.380     263.00
  34.390     270.00
  34.400     280.00
  34.410     268.00
  34.420     322.00
  34.430     278.00
  34.440     266.00
  34.450     268.00
  34.460     301.00
  34.470     291.00
  34.480     297.00
  34.490     312.00
  34.500     273.00
  34.510     269.00
  34.520     267.00
  34.530     294.00
  34.540     275.00
  34.550     292.00
  34.560     271.00
  34.570     280.00
  34.580     282.00
  34.590     256.00
  34.600     302.00
  34.610     297.00
  34.620     275.00
  34.630     271.00
  34.640     275.00
  34.650     256.00
  34.660     298.00
  34.670     274.00
  34.680     271.00
  34.690     279.00
  34.700     279.00
  34.710     288.00
  34.720     295.00
  34.730     262.00
  34.740     288.00
  34.750     286.00
  34.760     268.00
  34.770     270.00
  34.780     286.00
  34.790     255.00
  34.800     291.00
  34.810     267.00
  34.820     263.00
  34.830     281.00
  34.840     266.00
  34.850     275.00
  34.860     276.00
  34.870     287.00
  34.880     257.00
  34.890     267.00
  34.900     264.00
  34.910     304.00
  34.920     297.00
  34.930     278.00
  34.940     279.00
  34.950     302.00
  34.960     258.00
  34.970     296.00
  34.980     281.00
  34.990     276.00
  35.000     249.00
  35.010     273.00
  35.020     281.00
  35.030     267.00
  35.040     281.00
  35.050     284.00
  35.060     298.00
  35.070     254.00
  35.080     307.00
  35.090     265.00
  35.100     266.00
  35.110     309.00
  35.120     269.00
  35.130     283.00
  35.140     287.00
  35.150     300.00
  35.160     276.00
  35.170     302.00
  35.180     278.00
  35.190     275.00
  35.200     276.00
  35.210     285.00
  35.220     290.00
  35.230     294.00
  35.240     262.00
  35.250     310.00
  35.260     293.00
  35.270     286.00
  35.280     268.00
  35.290     241.00
  35.300     271.00
  35.310     280.00
  35.320     264.00
  35.330     255.00
  35.340     285.00
  35.350     285.00
  35.360     267.00
  35.370     297.00
  35.380     266.00
  35.390     272.00
  35.400     279.00
  35.410     281.00
  35.420     243.00
  35.430     283.00
  35.440     273.00
  35.450     292.00
  35.460     298.00
  35.470     286.00
  35.480     283.00
  35.490     297.00
  35.500     286.00
  35.510     259.00
  35.520     289.00
  35.530     290.00
  35.540     290.00
  35.550     309.00
  35.560     264.00
  35.570     269.00
  35.580     280.00
  35.590     275.00
  35.600     259.00
  35.610     301.00
  35.620     260.00
  35.630     268.00
  35.640     263.00
  35.650     282.00
  35.660     273.00
  35.670     287.00
  35.680     300.00
  35.690     285.00
  35.700     270.00
  35.710     298.00
  35.720     257.00
  35.730     262.00
  35.740     264.00
  35.750     299.00
  35.760     272.00
  35.770     264.00
  35.780     293.00
  35.790     285.00
  35.800     298.00
  35.810     294.00
  35.820     293.00
  35.830     308.00
  35.840     258.00
  35.850     281.00
  35.860     292.00
  35.870     301.00
  35.880     264.00
  35.890     291.00
  35.900     274.00
  35.910     304.00
  35.920     288.00
  35.930     281.00
  35.940     277.00
  35.950     295.00
  35.960     284.00
  35.970     271.00
  35.980     274.00
  35.990     295.00
  36.000     271.00
  36.010     275.00
  36.020     268.00
  36.030     296.00
  36.040     276.00
  36.050     258.00
  36.060     285.00
  36.070     301.00
  36.080     263.00
  36.090     285.00
  36.100     259.00
  36.110     275.00
  36.120     254.00
  36.130     292.00
  36.140     270.00
  36.150     268.00
  36.160     310.00
  36.170     269.00
  36.180     276.00
  36.190     297.00
  36.200     269.00
  36.210     276.00
  36.220     266.00
  36.230     269.00
  36.240     270.00
  36.250     276.00
  36.260     270.00
  36.270     305.00
  36.280     271.00
  36.290     285.00
  36.300     271.00
  36.310     300.00
  36.320     282.00
  36.330     278.00
  36.340     321.00
  36.350     262.00
  36.360     271.00
  36.370     284.00
  36.380     297.00
  36.390     306.00
  36.400     305.00
  36.410     260.00
  36.420     257.00
  36.430     283.00
  36.440     293.00
  36.450     267.00
  36.460     256.00
  36.470     280.00
  36.480     275.00
  36.490     290.00
  36.500     286.00
  36.510     263.00
  36.520     282.00
  36.530     253.00
  36.540     272.00
  36.550     272.00
  36.560     265.00
  36.570     287.00
  36.580     302.00
  36.590     309.00
  36.600     294.00
  36.610     279.00
  36.620     245.00
  36.630     261.00
  36.640     279.00
  36.650     262.00
  36.660     299.00
  36.670     271.00
  36.680     255.00
  36.690     295.00
  36.700     299.00
  36.710     278.00
  36.720     280.00
  36.730     288.00
  36.740     271.00
  36.750     299.00
  36.760     302.00
  36.770     259.00
  36.780     263.00
  36.790     298.00
  36.800     280.00
  36.810     275.00
  36.820     275.00
  36.830     273.00
  36.840     270.00
  36.850     250.00
  36.860     252.00
  36.870     294.00
  36.880     273.00
  36.890     292.00
  36.900     295.00
  36.910     305.00
  36.920     271.00
  36.930     269.00
  36.940     301.00
  36.950     282.00
  36.960     274.00
  36.970     266.00
  36.980     276.00
  36.990     274.00
  37.000     277.00
  37.010     283.00
  37.020     270.00
  37.030     276.00
  37.040     306.00
  37.050     267.00
  37.060     279.00
  37.070     299.00
  37.080     278.00
  37.090     278.00
  37.100     259.00
  37.110     258.00
  37.120     261.00
  37.130     257.00
  37.140     330.00
  37.150     299.00
  37.160     267.00
  37.170     268.00
  37.180     278.00
  37.190     267.00
  37.200     275.00
  37.210     289.00
  37.220     291.00
  37.230     276.00
  37.240     294.00
  37.250     275.00
  37.260     270.00
  37.270     245.00
  37.280     289.00
  37.290     271.00
  37.300     256.00
  37.310     282.00
  37.320     271.00
  37.330     271.00
  37.340     311.00
  37.350     274.00
  37.360     284.00
  37.370     263.00
  37.380     271.00
  37.390     253.00
  37.400     302.00
  37.410     278.00
  37.420     280.00
  37.430     297.00
  37.440     265.00
  37.450     268.00
  37.460     278.00
  37.470     254.00
  37.480     266.00
  37.490     259.00
  37.500     290.00
  37.510     283.00
  37.520     281.00
  37.530     309.00
  37.540     284.00
  37.550     287.00
  37.560     266.00
  37.570     267.00
  37.580     264.00
  37.590     298.00
  37.600     270.00
  37.610     267.00
  37.620     280.00
  37.630     296.00
  37.640     293.00
  37.650     278.00
  37.660     291.00
  37.670     275.00
  37.680     270.00
  37.690     316.00
  37.700     269.00
  37.710     265.00
  37.720     285.00
  37.730     284.00
  37.740     267.00
  37.750     272.00
  37.760     282.00
  37.770     294.00
  37.780     313.00
  37.790     271.00
  37.800     305.00
  37.810     287.00
  37.820     304.00
  37.830     277.00
  37.840     309.00
  37.850     262.00
  37.860     286.00
  37.870     282.00
  37.880     271.00
  37.890     294.00
  37.900     287.00
  37.910     274.00
  37.920     318.00
  37.930     266.00
  37.940     309.00
  37.950     299.00
  37.960     282.00
  37.970     282.00
  37.980     269.00
  37.990     268.00
  38.000     274.00
  38.010     283.00
  38.020     280.00
  38.030     291.00
  38.040     264.00
  38.050     281.00
  38.060     303.00
  38.070     279.00
  38.080     299.00
  38.090     278.00
  38.100     293.00
  38.110     291.00
  38.120     272.00
  38.130     296.00
  38.140     272.00
  38.150     304.00
  38.160     279.00
  38.170     268.00
  38.180     258.00
  38.190     291.00
  38.200     268.00
  38.210     295.00
  38.220     281.00
  38.230     288.00
  38.240     275.00
  38.250     313.00
  38.260     265.00
  38.270     290.00
  38.280     264.00
  38.290     271.00
  38.300     280.00
  38.310     288.00
  38.320     253.00
  38.330     277.00
  38.340     289.00
  38.350     237.00
  38.360     286.00
  38.370     251.00
  38.380     289.00
  38.390     308.00
  38.400     284.00
  38.410     307.00
  38.420     290.00
  38.430     271.00
  38.440     266.00
  38.450     297.00
  38.460     286.00
  38.470     280.00
  38.480     283.00
  38.490     264.00
  38.500     280.00
  38.510     278.00
  38.520     311.00
  38.530     308.00
  38.540     304.00
  38.550     282.00
  38.560     263.00
  38.570     296.00
  38.580     297.00
  38.590     285.00
  38.600     282.00
  38.610     308.00
  38.620     298.00
  38.630     258.00
  38.640     304.00
  38.650     253.00
  38.660     281.00
  38.670     291.00
  38.680     303.00
  38.690     287.00
  38.700     299.00
  38.710     261.00
  38.720     285.00
  38.730     277.00
  38.740     305.00
  38.750     276.00
  38.760     253.00
  38.770     302.00
  38.780     301.00
  38.790     277.00
  38.800     308.00
  38.810     279.00
  38.820     281.00
  38.830     291.00
  38.840     282.00
  38.850     281.00
  38.860     300.00
  38.870     282.00
  38.880     240.00
  38.890     281.00
  38.900     296.00
  38.910     300.00
  38.920     282.00
  38.930     284.00
  38.940     283.00
  38.950     254.00
  38.960     291.00
  38.970     257.00
  38.980     311.00
  38.990     283.00
  39.000     254.00
  39.010     260.00
  39.020     285.00
  39.030     276.00
  39.040     281.00
  39.050     266.00
  39.060     276.00
  39.070     287.00
  39.080     301.00
  39.090     283.00
  39.100     299.00
  39.110     269.00
  39.120     297.00
  39.130     283.00
  39.140     281.00
  39.150     274.00
  39.160     286.00
  39.170     281.00
  39.180     296.00
  39.190     272.00
  39.200     285.00
  39.210     282.00
  39.220     268.00
  39.230     289.00
  39.240     276.00
  39.250     316.00
  39.260     260.00
  39.270     278.00
  39.280     293.00
  39.290     273.00
  39.300     282.00
  39.310     274.00
  39.320     285.00
  39.330     309.00
  39.340     303.00
  39.350     287.00
  39.360     283.00
  39.370     297.00
  39.380     275.00
  39.390     283.00
  39.400     260.00
  39.410     279.00
  39.420     279.00
  39.430     267.00
  39.440     289.00
  39.450     295.00
  39.460     261.00
  39.470     259.00
  39.480     264.00
  39.490     277.00
  39.500     256.00
  39.510     266.00
  39.520     294.00
  39.530     290.00
  39.540     272.00
  39.550     286.00
  39.560     271.00
  39.570     270.00
  39.580     282.00
  39.590     253.00
  39.600     285.00
  39.610     278.00
  39.620     304.00
  39.630     304.00
  39.640     276.00
  39.650     290.00
  39.660     288.00
  39.670     282.00
  39.680     291.00
  39.690     286.00
  39.700     284.00
  39.710     284.00
  39.720     305.00
  39.730     304.00
  39.740     284.00
  39.750     267.00
  39.760     295.00
  39.770     311.00
  39.780     284.00
  39.790     270.00
  39.800     265.00
  39.810     317.00
  39.820     283.00
  39.830     291.00
  39.840     281.00
  39.850     267.00
  39.860     293.00
  39.870     286.00
  39.880     264.00
  39.890     319.00
  39.900     279.00
  39.910     257.00
  39.920     282.00
  39.930     254.00
  39.940     259.00
  39.950     264.00
  39.960     270.00
  39.970     264.00
  39.980     290.00
  39.990     292.00
  40.000     318.00
  40.010     278.00
  40.020     278.00
  40.030     289.00
  40.040     274.00
  40.050     267.00
  40.060     274.00
  40.070     287.00
  40.080     352.00
  40.090     257.00
  40.100     308.00
  40.110     297.00
  40.120     288.00
  40.130     303.00
  40.140     284.00
  40.150     297.00
  40.160     272.00
  40.170     292.00
  40.180     293.00
  40.190     300.00
  40.200     290.00
  40.210     258.00
  40.220     300.00
  40.230     319.00
  40.240     302.00
  40.250     229.00
  40.260     308.00
  40.270     321.00
  40.280     315.00
  40.290     277.00
  40.300     300.00
  40.310     249.00
  40.320     292.00
  40.330     276.00
  40.340     267.00
  40.350     249.00
  40.360     317.00
  40.370     294.00
  40.380     289.00
  40.390     298.00
  40.400     289.00
  40.410     270.00
  40.420     264.00
  40.430     287.00
  40.440     304.00
  40.450     290.00
  40.460     271.00
  40.470     272.00
  40.480     302.00
  40.490     296.00
  40.500     273.00
  40.510     286.00
  40.520     288.00
  40.530     297.00
  40.540     273.00
  40.550     301.00
  40.560     300.00
  40.570     274.00
  40.580     284.00
  40.590     273.00
  40.600     287.00
  40.610     271.00
  40.620     286.00
  40.630     281.00
  40.640     293.00
  40.650     289.00
  40.660     278.00
  40.670     270.00
  40.680     258.00
  40.690     294.00
  40.700     307.00
  40.710     270.00
  40.720     272.00
  40.730     286.00
  40.740     302.00
  40.750     312.00
  40.760     293.00
  40.770     282.00
  40.780     302.00
  40.790     303.00
  40.800     314.00
  40.810     272.00
  40.820     285.00
  40.830     266.00
  40.840     269.00
  40.850     285.00
  40.860     270.00
  40.870     274.00
  40.880     299.00
  40.890     305.00
  40.900     289.00
  40.910     263.00
  40.920     301.00
  40.930     289.00
  40.940     290.00
  40.950     286.00
  40.960     259.00
  40.970     271.00
  40.980     281.00
  40.990     294.00
  41.000     262.00
  41.010     292.00
  41.020     301.00
  41.030     285.00
  41.040     293.00
  41.050     315.00
  41.060     319.00
  41.070     283.00
  41.080     281.00
  41.090     282.00
  41.100     294.00
  41.110     288.00
  41.120     287.00
  41.130     287.00
  41.140     292.00
  41.150     284.00
  41.160     275.00
  41.170     296.00
  41.180     294.00
  41.190     278.00
  41.200     273.00
  41.210     282.00
  41.220     284.00
  41.230     316.00
  41.240     266.00
  41.250     274.00
  41.260     264.00
  41.270     301.00
  41.280     283.00
  41.290     258.00
  41.300     287.00
  41.310     280.00
  41.320     303.00
  41.330     279.00
  41.340     279.00
  41.350     260.00
  41.360     282.00
  41.370     311.00
  41.380     276.00
  41.390     265.00
  41.400     290.00
  41.410     266.00
  41.420     306.00
  41.430     287.00
  41.440     291.00
  41.450     286.00
  41.460     303.00
  41.470     308.00
  41.480     298.00
  41.490     275.00
  41.500     267.00
  41.510     303.00
  41.520     300.00
  41.530     289.00
  41.540     274.00
  41.550     285.00
  41.560     280.00
  41.570     270.00
  41.580     310.00
  41.590     285.00
  41.600     278.00
  41.610     304.00
  41.620     293.00
  41.630     307.00
  41.640     304.00
  41.650     296.00
  41.660     252.00
  41.670     325.00
  41.680     291.00
  41.690     276.00
  41.700     283.00
  41.710     281.00
  41.720     261.00
  41.730     292.00
  41.740     308.00
  41.750     286.00
  41.760     304.00
  41.770     296.00
  41.780     278.00
  41.790     296.00
  41.800     293.00
  41.810     310.00
  41.820     298.00
  41.830     291.00
  41.840     292.00
  41.850     287.00
  41.860     283.00
  41.870     277.00
  41.880     283.00
  41.890     294.00
  41.900     292.00
  41.910     293.00
  41.920     270.00
  41.930     263.00
  41.940     295.00
  41.950     306.00
  41.960     280.00
  41.970     286.00
  41.980     262.00
  41.990     288.00
  42.000     302.00
  42.010     279.00
  42.020     270.00
  42.030     297.00
  42.040     298.00
  42.050     299.00
  42.060     302.00
  42.070     303.00
  42.080     313.00
  42.090     278.00
  42.100     322.00
  42.110     289.00
  42.120     283.00
  42.130     268.00
  42.140     307.00
  42.150     291.00
  42.160     271.00
  42.170     277.00
  42.180     282.00
  42.190     269.00
  42.200     301.00
  42.210     265.00
  42.220     289.00
  42.230     300.00
  42.240     279.00
  42.250     311.00
  42.260     280.00
  42.270     291.00
  42.280     327.00
  42.290     281.00
  42.300     306.00
  42.310     296.00
  42.320     299.00
  42.330     300.00
  42.340     308.00
  42.350     289.00
  42.360     263.00
  42.370     293.00
  42.380     305.00
  42.390     302.00
  42.400     287.00
  42.410     307.00
  42.420     296.00
  42.430     282.00
  42.440     312.00
  42.450     262.00
  42.460     279.00
  42.470     250.00
  42.480     299.00
  42.490     299.00
  42.500     312.00
  42.510     298.00
  42.520     281.00
  42.530     277.00
  42.540     293.00
  42.550     287.00
  42.560     272.00
  42.570     309.00
  42.580     270.00
  42.590     306.00
  42.600     308.00
  42.610     331.00
  42.620     271.00
  42.630     254.00
  42.640     278.00
  42.650     258.00
  42.660     314.00
  42.670     261.00
  42.680     283.00
  42.690     311.00
  42.700     292.00
  42.710     296.00
  42.720     294.00
  42.730     287.00
  42.740     282.00
  42.750     288.00
  42.760     297.00
  42.770     299.00
  42.780     295.00
  42.790     323.00
  42.800     281.00
  42.810     272.00
  42.820     282.00
  42.830     322.00
  42.840     295.00
  42.850     289.00
  42.860     271.00
  42.870     273.00
  42.880     277.00
  42.890     279.00
  42.900     288.00
  42.910     297.00
  42.920     299.00
  42.930     311.00
  42.940     321.00
  42.950     309.00
  42.960     325.00
  42.970     282.00
  42.980     315.00
  42.990     307.00
  43.000     293.00
  43.010     287.00
  43.020     292.00
  43.030     261.00
  43.040     271.00
  43.050     294.00
  43.060     269.00
  43.070     269.00
  43.080     303.00
  43.090     300.00
  43.100     286.00
  43.110     302.00
  43.120     274.00
  43.130     335.00
  43.140     265.00
  43.150     301.00
  43.160     286.00
  43.170     297.00
  43.180     283.00
  43.190     304.00
  43.200     293.00
  43.210     298.00
  43.220     296.00
  43.230     282.00
  43.240     316.00
  43.250     296.00
  43.260     278.00
  43.270     274.00
  43.280     304.00
  43.290     328.00
  43.300     302.00
  43.310     294.00
  43.320     280.00
  43.330     271.00
  43.340     298.00
  43.350     297.00
  43.360     305.00
  43.370     289.00
  43.380     278.00
  43.390     302.00
  43.400     308.00
  43.410     302.00
  43.420     309.00
  43.430     304.00
  43.440     315.00
  43.450     302.00
  43.460     311.00
  43.470     293.00
  43.480     287.00
  43.490     312.00
  43.500     269.00
  43.510     293.00
  43.520     281.00
  43.530     293.00
  43.540     307.00
  43.550     311.00
  43.560     316.00
  43.570     293.00
  43.580     324.00
  43.590     282.00
  43.600     309.00
  43.610     313.00
  43.620     320.00
  43.630     316.00
  43.640     290.00
  43.650     331.00
  43.660     329.00
  43.670     330.00
  43.680     361.00
  43.690     335.00
  43.700     330.00
  43.710     286.00
  43.720     350.00
  43.730     314.00
  43.740     319.00
  43.750     319.00
  43.760     319.00
  43.770     352.00
  43.780     313.00
  43.790     318.00
  43.800     331.00
  43.810     326.00
  43.820     298.00
  43.830     275.00
  43.840     347.00
  43.850     330.00
  43.860     320.00
  43.870     315.00
  43.880     321.00
  43.890     299.00
  43.900     303.00
  43.910     306.00
  43.920     286.00
  43.930     319.00
  43.940     271.00
  43.950     299.00
  43.960     315.00
  43.970     310.00
  43.980     306.00
  43.990     310.00
  44.000     296.00
  44.010     292.00
  44.020     295.00
  44.030     340.00
  44.040     277.00
  44.050     291.00
  44.060     270.00
  44.070     307.00
  44.080     324.00
  44.090     285.00
  44.100     287.00
  44.110     288.00
  44.120     292.00
  44.130     352.00
  44.140     282.00
  44.150     272.00
  44.160     293.00
  44.170     283.00
  44.180     274.00
  44.190     309.00
  44.200     267.00
  44.210     289.00
  44.220     268.00
  44.230     269.00
  44.240     311.00
  44.250     268.00
  44.260     296.00
  44.270     286.00
  44.280     277.00
  44.290     316.00
  44.300     291.00
  44.310     298.00
  44.320     309.00
  44.330     310.00
  44.340     307.00
  44.350     289.00
  44.360     304.00
  44.370     284.00
  44.380     280.00
  44.390     291.00
  44.400     283.00
  44.410     296.00
  44.420     299.00
  44.430     282.00
  44.440     300.00
  44.450     287.00
  44.460     265.00
  44.470     277.00
  44.480     269.00
  44.490     309.00
  44.500     317.00
  44.510     327.00
  44.520     289.00
  44.530     292.00
  44.540     316.00
  44.550     310.00
  44.560     307.00
  44.570     267.00
  44.580     278.00
  44.590     280.00
  44.600     318.00
  44.610     272.00
  44.620     308.00
  44.630     290.00
  44.640     275.00
  44.650     295.00
  44.660     310.00
  44.670     302.00
  44.680     283.00
  44.690     315.00
  44.700     283.00
  44.710     275.00
  44.720     287.00
  44.730     296.00
  44.740     323.00
  44.750     309.00
  44.760     268.00
  44.770     303.00
  44.780     291.00
  44.790     317.00
  44.800     280.00
  44.810     282.00
  44.820     269.00
  44.830     318.00
  44.840     295.00
  44.850     312.00
  44.860     293.00
  44.870     272.00
  44.880     303.00
  44.890     288.00
  44.900     304.00
  44.910     297.00
  44.920     287.00
  44.930     277.00
  44.940     293.00
  44.950     263.00
  44.960     291.00
  44.970     273.00
  44.980     316.00
  44.990     318.00
  45.000     257.00
  45.010     285.00
  45.020     275.00
  45.030     274.00
  45.040     293.00
  45.050     277.00
  45.060     294.00
  45.070     300.00
  45.080     314.00
  45.090     311.00
  45.100     297.00
  45.110     335.00
  45.120     312.00
  45.130     262.00
  45.140     285.00
  45.150     278.00
  45.160     265.00
  45.170     283.00
  45.180     268.00
  45.190     306.00
  45.200     330.00
  45.210     299.00
  45.220     296.00
  45.230     316.00
  45.240     256.00
  45.250     313.00
  45.260     287.00
  45.270     285.00
  45.280     273.00
  45.290     257.00
  45.300     256.00
  45.310     343.00
  45.320     307.00
  45.330     279.00
  45.340     272.00
  45.350     302.00
  45.360     289.00
  45.370     319.00
  45.380     306.00
  45.390     273.00
  45.400     316.00
  45.410     290.00
  45.420     289.00
  45.430     278.00
  45.440     296.00
  45.450     266.00
  45.460     300.00
  45.470     279.00
  45.480     250.00
  45.490     266.00
  45.500     293.00
  45.510     277.00
  45.520     305.00
  45.530     294.00
  45.540     269.00
  45.550     287.00
  45.560     322.00
  45.570     324.00
  45.580     278.00
  45.590     285.00
  45.600     301.00
  45.610     283.00
  45.620     258.00
  45.630     281.00
  45.640     291.00
  45.650     310.00
  45.660     269.00
  45.670     290.00
  45.680     304.00
  45.690     287.00
  45.700     275.00
  45.710     314.00
  45.720     286.00
  45.730     302.00
  45.740     326.00
  45.750     285.00
  45.760     294.00
  45.770     306.00
  45.780     329.00
  45.790     316.00
  45.800     300.00
  45.810     307.00
  45.820     269.00
  45.830     306.00
  45.840     300.00
  45.850     318.00
  45.860     263.00
  45.870     302.00
  45.880     283.00
  45.890     273.00
  45.900     306.00
  45.910     287.00
  45.920     292.00
  45.930     281.00
  45.940     294.00
  45.950     287.00
  45.960     272.00
  45.970     283.00
  45.980     288.00
  45.990     296.00
  46.000     324.00
  46.010     291.00
  46.020     323.00
  46.030     308.00
  46.040     302.00
  46.050     286.00
  46.060     256.00
  46.070     285.00
  46.080     257.00
  46.090     306.00
  46.100     302.00
  46.110     250.00
  46.120     289.00
  46.130     285.00
  46.140     322.00
  46.150     289.00
  46.160     268.00
  46.170     335.00
  46.180     304.00
  46.190     309.00
  46.200     286.00
  46.210     277.00
  46.220     300.00
  46.230     300.00
  46.240     278.00
  46.250     295.00
  46.260     290.00
  46.270     286.00
  46.280     273.00
  46.290     292.00
  46.300     283.00
  46.310     280.00
  46.320     318.00
  46.330     281.00
  46.340     283.00
  46.350     280.00
  46.360     286.00
  46.370     321.00
  46.380     310.00
  46.390     293.00
  46.400     285.00
  46.410     293.00
  46.420     282.00
  46.430     297.00
  46.440     329.00
  46.450     317.00
  46.460     292.00
  46.470     286.00
  46.480     309.00
  46.490     297.00
  46.500     291.00
  46.510     316.00
  46.520     315.00
  46.530     268.00
  46.540     293.00
  46.550     298.00
  46.560     306.00
  46.570     320.00
  46.580     312.00
  46.590     304.00
  46.600     291.00
  46.610     299.00
  46.620     301.00
  46.630     306.00
  46.640     290.00
  46.650     309.00
  46.660     301.00
  46.670     317.00
  46.680     317.00
  46.690     289.00
  46.700     325.00
  46.710     310.00
  46.720     275.00
  46.730     310.00
  46.740     299.00
  46.750     308.00
  46.760     334.00
  46.770     299.00
  46.780     313.00
  46.790     317.00
  46.800     294.00
  46.810     319.00
  46.820     291.00
  46.830     290.00
  46.840     290.00
  46.850     307.00
  46.860     291.00
  46.870     266.00
  46.880     290.00
  46.890     310.00
  46.900     281.00
  46.910     316.00
  46.920     291.00
  46.930     318.00
  46.940     285.00
  46.950     307.00
  46.960     313.00
  46.970     299.00
  46.980     264.00
  46.990     289.00
  47.000     301.00
  47.010     302.00
  47.020     276.00
  47.030     300.00
  47.040     287.00
  47.050     322.00
  47.060     322.00
  47.070     289.00
  47.080     302.00
  47.090     330.00
  47.100     266.00
  47.110     285.00
  47.120     302.00
  47.130     276.00
  47.140     333.00
  47.150     282.00
  47.160     329.00
  47.170     281.00
  47.180     289.00
  47.190     310.00
  47.200     321.00
  47.210     313.00
  47.220     315.00
  47.230     318.00
  47.240     285.00
  47.250     354.00
  47.260     280.00
  47.270     329.00
  47.280     323.00
  47.290     303.00
  47.300     327.00
  47.310     320.00
  47.320     306.00
  47.330     346.00
  47.340     349.00
  47.350     347.00
  47.360     355.00
  47.370     333.00
  47.380     341.00
  47.390     375.00
  47.400     380.00
  47.410     374.00
  47.420     383.00
  47.430     426.00
  47.440     482.00
  47.450     538.00
  47.460     647.00
  47.470     802.00
  47.480    1065.00
  47.490    1612.00
  47.500    2331.00
  47.510    3254.00
  47.520    4740.00
  47.530    6278.00
  47.540    7792.00
  47.550    9064.00
  47.560    9480.00
  47.570    9401.00
  47.580    8602.00
  47.590    7003.00
  47.600    5499.00
  47.610    3892.00
  47.620    2666.00
  47.630    1864.00
  47.640    1238.00
  47.650     956.00
  47.660     807.00
  47.670     659.00
  47.680     559.00
  47.690     500.00
  47.700     491.00
  47.710     471.00
  47.720     483.00
  47.730     472.00
  47.740     469.00
  47.750     451.00
  47.760     458.00
  47.770     465.00
  47.780     449.00
  47.790     377.00
  47.800     390.00
  47.810     379.00
  47.820     362.00
  47.830     404.00
  47.840     364.00
  47.850     326.00
  47.860     319.00
  47.870     323.00
  47.880     308.00
  47.890     307.00
  47.900     328.00
  47.910     310.00
  47.920     312.00
  47.930     331.00
  47.940     300.00
  47.950     302.00
  47.960     299.00
  47.970     323.00
  47.980     311.00
  47.990     301.00
  48.000     284.00
  48.010     316.00
  48.020     298.00
  48.030     333.00
  48.040     303.00
  48.050     317.00
  48.060     313.00
  48.070     304.00
  48.080     301.00
  48.090     316.00
  48.100     318.00
  48.110     332.00
  48.120     337.00
  48.130     309.00
  48.140     311.00
  48.150     306.00
  48.160     323.00
  48.170     304.00
  48.180     285.00
  48.190     287.00
  48.200     303.00
  48.210     293.00
  48.220     311.00
  48.230     316.00
  48.240     301.00
  48.250     310.00
  48.260     285.00
  48.270     293.00
  48.280     311.00
  48.290     304.00
  48.300     298.00
  48.310     305.00
  48.320     271.00
  48.330     297.00
  48.340     295.00
  48.350     274.00
  48.360     297.00
  48.370     337.00
  48.380     290.00
  48.390     284.00
  48.400     307.00
  48.410     305.00
  48.420     281.00
  48.430     325.00
  48.440     274.00
  48.450     290.00
  48.460     281.00
  48.470     341.00
  48.480     318.00
  48.490     302.00
  48.500     305.00
  48.510     296.00
  48.520     311.00
  48.530     304.00
  48.540     312.00
  48.550     318.00
  48.560     299.00
  48.570     289.00
  48.580     340.00
  48.590     306.00
  48.600     308.00
  48.610     319.00
  48.620     310.00
  48.630     297.00
  48.640     301.00
  48.650     264.00
  48.660     306.00
  48.670     340.00
  48.680     318.00
  48.690     282.00
  48.700     303.00
  48.710     291.00
  48.720     293.00
  48.730     301.00
  48.740     309.00
  48.750     320.00
  48.760     293.00
  48.770     313.00
  48.780     285.00
  48.790     286.00
  48.800     283.00
  48.810     290.00
  48.820     280.00
  48.830     330.00
  48.840     290.00
  48.850     328.00
  48.860     316.00
  48.870     289.00
  48.880     284.00
  48.890     316.00
  48.900     290.00
  48.910     312.00
  48.920     274.00
  48.930     304.00
  48.940     311.00
  48.950     297.00
  48.960     278.00
  48.970     311.00
  48.980     278.00
  48.990     305.00
  49.000     315.00
  49.010     322.00
  49.020     318.00
  49.030     290.00
  49.040     326.00
  49.050     291.00
  49.060     293.00
  49.070     294.00
  49.080     296.00
  49.090     301.00
  49.100     297.00
  49.110     312.00
  49.120     286.00
  49.130     265.00
  49.140     285.00
  49.150     306.00
  49.160     316.00
  49.170     310.00
  49.180     309.00
  49.190     315.00
  49.200     263.00
  49.210     303.00
  49.220     292.00
  49.230     328.00
  49.240     285.00
  49.250     312.00
  49.260     283.00
  49.270     317.00
  49.280     270.00
  49.290     322.00
  49.300     311.00
  49.310     281.00
  49.320     283.00
  49.330     300.00
  49.340     303.00
  49.350     270.00
  49.360     329.00
  49.370     295.00
  49.380     303.00
  49.390     295.00
  49.400     311.00
  49.410     285.00
  49.420     281.00
  49.430     339.00
  49.440     285.00
  49.450     313.00
  49.460     300.00
  49.470     286.00
  49.480     321.00
  49.490     285.00
  49.500     296.00
  49.510     310.00
  49.520     297.00
  49.530     286.00
  49.540     336.00
  49.550     300.00
  49.560     311.00
  49.570     317.00
  49.580     305.00
  49.590     295.00
  49.600     325.00
  49.610     299.00
  49.620     318.00
  49.630     325.00
  49.640     299.00
  49.650     302.00
  49.660     309.00
  49.670     296.00
  49.680     310.00
  49.690     305.00
  49.700     336.00
  49.710     299.00
  49.720     285.00
  49.730     309.00
  49.740     287.00
  49.750     278.00
  49.760     323.00
  49.770     296.00
  49.780     317.00
  49.790     302.00
  49.800     292.00
  49.810     344.00
  49.820     328.00
  49.830     299.00
  49.840     276.00
  49.850     311.00
  49.860     318.00
  49.870     315.00
  49.880     337.00
  49.890     314.00
  49.900     295.00
  49.910     298.00
  49.920     345.00
  49.930     313.00
  49.940     294.00
  49.950     335.00
  49.960     279.00
  49.970     309.00
  49.980     309.00
  49.990     297.00
  50.000     298.00
  50.010     294.00
  50.020     300.00
  50.030     293.00
  50.040     314.00
  50.050     322.00
  50.060     300.00
  50.070     313.00
  50.080     324.00
  50.090     325.00
  50.100     344.00
  50.110     307.00
  50.120     306.00
  50.130     320.00
  50.140     287.00
  50.150     296.00
  50.160     314.00
  50.170     301.00
  50.180     291.00
  50.190     280.00
  50.200     290.00
  50.210     314.00
  50.220     328.00
  50.230     301.00
  50.240     295.00
  50.250     300.00
  50.260     307.00
  50.270     308.00
  50.280     296.00
  50.290     316.00
  50.300     321.00
  50.310     319.00
  50.320     311.00
  50.330     326.00
  50.340     324.00
  50.350     309.00
  50.360     310.00
  50.370     299.00
  50.380     319.00
  50.390     314.00
  50.400     306.00
  50.410     300.00
  50.420     290.00
  50.430     336.00
  50.440     299.00
  50.450     293.00
  50.460     326.00
  50.470     316.00
  50.480     333.00
  50.490     307.00
  50.500     302.00
  50.510     293.00
  50.520     289.00
  50.530     313.00
  50.540     279.00
  50.550     322.00
  50.560     357.00
  50.570     328.00
  50.580     315.00
  50.590     303.00
  50.600     299.00
  50.610     338.00
  50.620     313.00
  50.630     342.00
  50.640     331.00
  50.650     316.00
  50.660     306.00
  50.670     327.00
  50.680     305.00
  50.690     313.00
  50.700     320.00
  50.710     310.00
  50.720     315.00
  50.730     348.00
  50.740     338.00
  50.750     327.00
  50.760     344.00
  50.770     324.00
  50.780     327.00
  50.790     299.00
  50.800     323.00
  50.810     355.00
  50.820     318.00
  50.830     309.00
  50.840     315.00
  50.850     300.00
  50.860     343.00
  50.870     324.00
  50.880     314.00
  50.890     324.00
  50.900     323.00
  50.910     291.00
  50.920     293.00
  50.930     316.00
  50.940     309.00
  50.950     330.00
  50.960     302.00
  50.970     323.00
  50.980     364.00
  50.990     305.00
  51.000     325.00
  51.010     312.00
  51.020     328.00
  51.030     323.00
  51.040     301.00
  51.050     332.00
  51.060     299.00
  51.070     308.00
  51.080     304.00
  51.090     302.00
  51.100     319.00
  51.110     301.00
  51.120     305.00
  51.130     310.00
  51.140     326.00
  51.150     325.00
  51.160     279.00
  51.170     323.00
  51.180     336.00
  51.190     288.00
  51.200     324.00
  51.210     327.00
  51.220     320.00
  51.230     305.00
  51.240     295.00
  51.250     307.00
  51.260     287.00
  51.270     292.00
  51.280     335.00
  51.290     295.00
  51.300     302.00
  51.310     284.00
  51.320     303.00
  51.330     316.00
  51.340     307.00
  51.350     300.00
  51.360     320.00
  51.370     304.00
  51.380     284.00
  51.390     314.00
  51.400     308.00
  51.410     312.00
  51.420     323.00
  51.430     303.00
  51.440     329.00
  51.450     322.00
  51.460     297.00
  51.470     308.00
  51.480     307.00
  51.490     287.00
  51.500     284.00
  51.510     305.00
  51.520     326.00
  51.530     275.00
  51.540     304.00
  51.550     305.00
  51.560     309.00
  51.570     305.00
  51.580     329.00
  51.590     313.00
  51.600     326.00
  51.610     306.00
  51.620     278.00
  51.630     292.00
  51.640     289.00
  51.650     300.00
  51.660     296.00
  51.670     299.00
  51.680     324.00
  51.690     322.00
  51.700     304.00
  51.710     313.00
  51.720     325.00
  51.730     329.00
  51.740     305.00
  51.750     306.00
  51.760     306.00
  51.770     313.00
  51.780     291.00
  51.790     290.00
  51.800     305.00
  51.810     312.00
  51.820     285.00
  51.830     309.00
  51.840     346.00
  51.850     273.00
  51.860     321.00
  51.870     284.00
  51.880     323.00
  51.890     288.00
  51.900     329.00
  51.910     319.00
  51.920     283.00
  51.930     332.00
  51.940     321.00
  51.950     300.00
  51.960     326.00
  51.970     322.00
  51.980     303.00
  51.990     311.00
  52.000     303.00
  52.010     327.00
  52.020     330.00
  52.030     326.00
  52.040     287.00
  52.050     310.00
  52.060     292.00
  52.070     294.00
  52.080     303.00
  52.090     312.00
  52.100     310.00
  52.110     334.00
  52.120     298.00
  52.130     305.00
  52.140     294.00
  52.150     285.00
  52.160     287.00
  52.170     308.00
  52.180     320.00
  52.190     297.00
  52.200     296.00
  52.210     283.00
  52.220     314.00
  52.230     293.00
  52.240     291.00
  52.250     290.00
  52.260     331.00
  52.270     317.00
  52.280     327.00
  52.290     288.00
  52.300     302.00
  52.310     313.00
  52.320     327.00
  52.330     311.00
  52.340     300.00
  52.350     282.00
  52.360     301.00
  52.370     326.00
  52.380     266.00
  52.390     305.00
  52.400     305.00
  52.410     338.00
  52.420     320.00
  52.430     282.00
  52.440     302.00
  52.450     288.00
  52.460     300.00
  52.470     315.00
  52.480     288.00
  52.490     293.00
  52.500     339.00
  52.510     305.00
  52.520     303.00
  52.530     302.00
  52.540     312.00
  52.550     303.00
  52.560     324.00
  52.570     316.00
  52.580     282.00
  52.590     316.00
  52.600     308.00
  52.610     319.00
  52.620     322.00
  52.630     303.00
  52.640     324.00
  52.650     317.00
  52.660     309.00
  52.670     286.00
  52.680     298.00
  52.690     309.00
  52.700     292.00
  52.710     326.00
  52.720     299.00
  52.730     344.00
  52.740     290.00
  52.750     325.00
  52.760     295.00
  52.770     284.00
  52.780     340.00
  52.790     295.00
  52.800     295.00
  52.810     347.00
  52.820     290.00
  52.830     289.00
  52.840     301.00
  52.850     324.00
  52.860     302.00
  52.870     284.00
  52.880     271.00
  52.890     327.00
  52.900     321.00
  52.910     278.00
  52.920     295.00
  52.930     340.00
  52.940     324.00
  52.950     306.00
  52.960     285.00
  52.970     309.00
  52.980     297.00
  52.990     315.00
  53.000     290.00
  53.010     288.00
  53.020     276.00
  53.030     309.00
  53.040     322.00
  53.050     299.00
  53.060     289.00
  53.070     343.00
  53.080     284.00
  53.090     299.00
  53.100     285.00
  53.110     304.00
  53.120     311.00
  53.130     305.00
  53.140     306.00
  53.150     292.00
  53.160     293.00
  53.170     347.00
  53.180     304.00
  53.190     268.00
  53.200     283.00
  53.210     301.00
  53.220     294.00
  53.230     291.00
  53.240     302.00
  53.250     306.00
  53.260     332.00
  53.270     318.00
  53.280     335.00
  53.290     289.00
  53.300     329.00
  53.310     285.00
  53.320     288.00
  53.330     318.00
  53.340     297.00
  53.350     273.00
  53.360     318.00
  53.370     300.00
  53.380     291.00
  53.390     304.00
  53.400     305.00
  53.410     326.00
  53.420     311.00
  53.430     297.00
  53.440     324.00
  53.450     319.00
  53.460     297.00
  53.470     329.00
  53.480     320.00
  53.490     290.00
  53.500     296.00
  53.510     297.00
  53.520     300.00
  53.530     284.00
  53.540     309.00
  53.550     291.00
  53.560     295.00
  53.570     316.00
  53.580     328.00
  53.590     320.00
  53.600     283.00
  53.610     323.00
  53.620     303.00
  53.630     278.00
  53.640     290.00
  53.650     324.00
  53.660     304.00
  53.670     321.00
  53.680     300.00
  53.690     296.00
  53.700     301.00
  53.710     279.00
  53.720     327.00
  53.730     316.00
  53.740     301.00
  53.750     315.00
  53.760     293.00
  53.770     335.00
  53.780     285.00
  53.790     304.00
  53.800     307.00
  53.810     306.00
  53.820     292.00
  53.830     326.00
  53.840     306.00
  53.850     347.00
  53.860     285.00
  53.870     326.00
  53.880     320.00
  53.890     319.00
  53.900     334.00
  53.910     315.00
  53.920     334.00
  53.930     291.00
  53.940     328.00
  53.950     300.00
  53.960     307.00
  53.970     333.00
  53.980     274.00
  53.990     302.00
  54.000     322.00
  54.010     273.00
  54.020     283.00
  54.030     285.00
  54.040     304.00
  54.050     350.00
  54.060     270.00
  54.070     305.00
  54.080     316.00
  54.090     323.00
  54.100     300.00
  54.110     300.00
  54.120     330.00
  54.130     300.00
  54.140     325.00
  54.150     319.00
  54.160     300.00
  54.170     294.00
  54.180     311.00
  54.190     280.00
  54.200     284.00
  54.210     311.00
  54.220     313.00
  54.230     289.00
  54.240     337.00
  54.250     286.00
  54.260     289.00
  54.270     328.00
  54.280     332.00
  54.290     299.00
  54.300     299.00
  54.310     311.00
  54.320     333.00
  54.330     306.00
  54.340     286.00
  54.350     312.00
  54.360     281.00
  54.370     311.00
  54.380     292.00
  54.390     295.00
  54.400     301.00
  54.410     314.00
  54.420     320.00
  54.430     334.00
  54.440     321.00
  54.450     293.00
  54.460     287.00
  54.470     297.00
  54.480     325.00
  54.490     255.00
  54.500     305.00
  54.510     322.00
  54.520     319.00
  54.530     316.00
  54.540     310.00
  54.550     289.00
  54.560     309.00
  54.570     315.00
  54.580     285.00
  54.590     315.00
  54.600     325.00
  54.610     330.00
  54.620     312.00
  54.630     316.00
  54.640     271.00
  54.650     320.00
  54.660     309.00
  54.670     284.00
  54.680     298.00
  54.690     320.00
  54.700     294.00
  54.710     299.00
  54.720     304.00
  54.730     308.00
  54.740     304.00
  54.750     328.00
  54.760     276.00
  54.770     313.00
  54.780     282.00
  54.790     323.00
  54.800     310.00
  54.810     282.00
  54.820     308.00
  54.830     323.00
  54.840     292.00
  54.850     281.00
  54.860     277.00
  54.870     317.00
  54.880     301.00
  54.890     322.00
  54.900     330.00
  54.910     332.00
  54.920     308.00
  54.930     297.00
  54.940     333.00
  54.950     314.00
  54.960     318.00
  54.970     315.00
  54.980     341.00
  54.990     273.00
  55.000     289.00
  55.010     299.00
  55.020     308.00
  55.030     307.00
  55.040     278.00
  55.050     319.00
  55.060     293.00
  55.070     326.00
  55.080     296.00
  55.090     311.00
  55.100     277.00
  55.110     305.00
  55.120     339.00
  55.130     296.00
  55.140     306.00
  55.150     307.00
  55.160     317.00
  55.170     309.00
  55.180     312.00
  55.190     345.00
  55.200     304.00
  55.210     316.00
  55.220     297.00
  55.230     295.00
  55.240     315.00
  55.250     324.00
  55.260     318.00
  55.270     303.00
  55.280     316.00
  55.290     334.00
  55.300     308.00
  55.310     343.00
  55.320     333.00
  55.330     310.00
  55.340     296.00
  55.350     308.00
  55.360     323.00
  55.370     316.00
  55.380     306.00
  55.390     321.00
  55.400     304.00
  55.410     282.00
  55.420     315.00
  55.430     328.00
  55.440     308.00
  55.450     316.00
  55.460     312.00
  55.470     321.00
  55.480     302.00
  55.490     308.00
  55.500     314.00
  55.510     321.00
  55.520     307.00
  55.530     325.00
  55.540     307.00
  55.550     303.00
  55.560     287.00
  55.570     337.00
  55.580     304.00
  55.590     307.00
  55.600     300.00
  55.610     326.00
  55.620     308.00
  55.630     330.00
  55.640     313.00
  55.650     331.00
  55.660     297.00
  55.670     318.00
  55.680     318.00
  55.690     329.00
  55.700     309.00
  55.710     314.00
  55.720     330.00
  55.730     326.00
  55.740     339.00
  55.750     314.00
  55.760     291.00
  55.770     312.00
  55.780     279.00
  55.790     328.00
  55.800     315.00
  55.810     339.00
  55.820     318.00
  55.830     316.00
  55.840     314.00
  55.850     308.00
  55.860     335.00
  55.870     315.00
  55.880     341.00
  55.890     310.00
  55.900     329.00
  55.910     332.00
  55.920     288.00
  55.930     337.00
  55.940     312.00
  55.950     344.00
  55.960     327.00
  55.970     314.00
  55.980     304.00
  55.990     310.00
  56.000     349.00
  56.010     326.00
  56.020     303.00
  56.030     306.00
  56.040     318.00
  56.050     347.00
  56.060     293.00
  56.070     335.00
  56.080     307.00
  56.090     324.00
  56.100     317.00
  56.110     355.00
  56.120     322.00
  56.130     313.00
  56.140     315.00
  56.150     319.00
  56.160     315.00
  56.170     324.00
  56.180     361.00
  56.190     335.00
  56.200     332.00
  56.210     352.00
  56.220     318.00
  56.230     367.00
  56.240     374.00
  56.250     380.00
  56.260     418.00
  56.270     410.00
  56.280     406.00
  56.290     423.00
  56.300     474.00
  56.310     543.00
  56.320     668.00
  56.330     837.00
  56.340    1175.00
  56.350    1545.00
  56.360    2221.00
  56.370    3270.00
  56.380    4548.00
  56.390    6052.00
  56.400    7482.00
  56.410    8418.00
  56.420    8648.00
  56.430    8268.00
  56.440    7003.00
  56.450    5707.00
  56.460    4371.00
  56.470    3161.00
  56.480    2229.00
  56.490    1654.00
  56.500    1238.00
  56.510     899.00
  56.520     746.00
  56.530     642.00
  56.540     565.00
  56.550     514.00
  56.560     472.00
  56.570     451.00
  56.580     479.00
  56.590     466.00
  56.600     441.00
  56.610     401.00
  56.620     453.00
  56.630     433.00
  56.640     451.00
  56.650     457.00
  56.660     414.00
  56.670     421.00
  56.680     410.00
  56.690     396.00
  56.700     352.00
  56.710     335.00
  56.720     366.00
  56.730     344.00
  56.740     345.00
  56.750     293.00
  56.760     351.00
  56.770     329.00
  56.780     343.00
  56.790     326.00
  56.800     332.00
  56.810     337.00
  56.820     316.00
  56.830     317.00
  56.840     333.00
  56.850     328.00
  56.860     279.00
  56.870     336.00
  56.880     298.00
  56.890     325.00
  56.900     323.00
  56.910     345.00
  56.920     307.00
  56.930     312.00
  56.940     320.00
  56.950     317.00
  56.960     321.00
  56.970     326.00
  56.980     306.00
  56.990     316.00
  57.000     290.00
  57.010     350.00
  57.020     303.00
  57.030     309.00
  57.040     340.00
  57.050     329.00
  57.060     304.00
  57.070     337.00
  57.080     334.00
  57.090     290.00
  57.100     278.00
  57.110     292.00
  57.120     340.00
  57.130     333.00
  57.140     295.00
  57.150     310.00
  57.160     265.00
  57.170     319.00
  57.180     294.00
  57.190     292.00
  57.200     338.00
  57.210     294.00
  57.220     305.00
  57.230     322.00
  57.240     314.00
  57.250     324.00
  57.260     323.00
  57.270     302.00
  57.280     310.00
  57.290     324.00
  57.300     319.00
  57.310     301.00
  57.320     337.00
  57.330     294.00
  57.340     304.00
  57.350     302.00
  57.360     290.00
  57.370     328.00
  57.380     290.00
  57.390     323.00
  57.400     352.00
  57.410     311.00
  57.420     336.00
  57.430     315.00
  57.440     298.00
  57.450     281.00
  57.460     321.00
  57.470     341.00
  57.480     286.00
  57.490     324.00
  57.500     344.00
  57.510     335.00
  57.520     320.00
  57.530     281.00
  57.540     294.00
  57.550     334.00
  57.560     291.00
  57.570     282.00
  57.580     308.00
  57.590     299.00
  57.600     310.00
  57.610     291.00
  57.620     326.00
  57.630     307.00
  57.640     331.00
  57.650     273.00
  57.660     318.00
  57.670     330.00
  57.680     302.00
  57.690     299.00
  57.700     316.00
  57.710     291.00
  57.720     308.00
  57.730     298.00
  57.740     316.00
  57.750     303.00
  57.760     334.00
  57.770     307.00
  57.780     302.00
  57.790     340.00
  57.800     313.00
  57.810     340.00
  57.820     300.00
  57.830     327.00
  57.840     318.00
  57.850     315.00
  57.860     298.00
  57.870     303.00
  57.880     295.00
  57.890     282.00
  57.900     309.00
  57.910     317.00
  57.920     304.00
  57.930     306.00
  57.940     327.00
  57.950     311.00
  57.960     308.00
  57.970     305.00
  57.980     304.00
  57.990     337.00
  58.000     309.00
  58.010     286.00
  58.020     316.00
  58.030     324.00
  58.040     309.00
  58.050     284.00
  58.060     310.00
  58.070     296.00
  58.080     303.00
  58.090     319.00
  58.100     334.00
  58.110     287.00
  58.120     305.00
  58.130     278.00
  58.140     312.00
  58.150     292.00
  58.160     326.00
  58.170     338.00
  58.180     309.00
  58.190     291.00
  58.200     328.00
  58.210     337.00
  58.220     329.00
  58.230     332.00
  58.240     302.00
  58.250     298.00
  58.260     316.00
  58.270     320.00
  58.280     315.00
  58.290     335.00
  58.300     322.00
  58.310     323.00
  58.320     312.00
  58.330     269.00
  58.340     295.00
  58.350     332.00
  58.360     329.00
  58.370     284.00
  58.380     316.00
  58.390     322.00
  58.400     322.00
  58.410     292.00
  58.420     284.00
  58.430     307.00
  58.440     319.00
  58.450     299.00
  58.460     277.00
  58.470     317.00
  58.480     355.00
  58.490     321.00
  58.500     347.00
  58.510     354.00
  58.520     317.00
  58.530     320.00
  58.540     327.00
  58.550     321.00
  58.560     310.00
  58.570     353.00
  58.580     316.00
  58.590     310.00
  58.600     316.00
  58.610     278.00
  58.620     287.00
  58.630     304.00
  58.640     298.00
  58.650     307.00
  58.660     292.00
  58.670     303.00
  58.680     316.00
  58.690     321.00
  58.700     307.00
  58.710     302.00
  58.720     307.00
  58.730     334.00
  58.740     314.00
  58.750     294.00
  58.760     294.00
  58.770     305.00
  58.780     313.00
  58.790     304.00
  58.800     326.00
  58.810     331.00
  58.820     317.00
  58.830     325.00
  58.840     326.00
  58.850     288.00
  58.860     315.00
  58.870     346.00
  58.880     311.00
  58.890     282.00
  58.900     322.00
  58.910     312.00
  58.920     320.00
  58.930     299.00
  58.940     321.00
  58.950     315.00
  58.960     295.00
  58.970     321.00
  58.980     333.00
  58.990     325.00
  59.000     337.00
  59.010     326.00
  59.020     367.00
  59.030     337.00
  59.040     346.00
  59.050     348.00
  59.060     366.00
  59.070     394.00
  59.080     457.00
  59.090     483.00
  59.100     570.00
  59.110     795.00
  59.120     954.00
  59.130    1174.00
  59.140    1478.00
  59.150    1716.00
  59.160    1834.00
  59.170    1831.00
  59.180    1730.00
  59.190    1613.00
  59.200    1249.00
  59.210    1043.00
  59.220     885.00
  59.230     670.00
  59.240     576.00
  59.250     470.00
  59.260     420.00
  59.270     373.00
  59.280     345.00
  59.290     351.00
  59.300     338.00
  59.310     372.00
  59.320     366.00
  59.330     347.00
  59.340     314.00
  59.350     316.00
  59.360     345.00
  59.370     326.00
  59.380     347.00
  59.390     346.00
  59.400     341.00
  59.410     338.00
  59.420     297.00
  59.430     376.00
  59.440     319.00
  59.450     328.00
  59.460     342.00
  59.470     324.00
  59.480     356.00
  59.490     300.00
  59.500     318.00
  59.510     322.00
  59.520     319.00
  59.530     298.00
  59.540     354.00
  59.550     324.00
  59.560     304.00
  59.570     310.00
  59.580     301.00
  59.590     332.00
  59.600     326.00
  59.610     292.00
  59.620     323.00
  59.630     275.00
  59.640     322.00
  59.650     320.00
  59.660     291.00
  59.670     332.00
  59.680     307.00
  59.690     284.00
  59.700     312.00
  59.710     305.00
  59.720     324.00
  59.730     337.00
  59.740     291.00
  59.750     329.00
  59.760     321.00
  59.770     283.00
  59.780     307.00
  59.790     338.00
  59.800     308.00
  59.810     318.00
  59.820     311.00
  59.830     318.00
  59.840     318.00
  59.850     312.00
  59.860     297.00
  59.870     324.00
  59.880     280.00
  59.890     300.00
  59.900     312.00
  59.910     315.00
  59.920     312.00
  59.930     329.00
  59.940     312.00
  59.950     338.00
  59.960     316.00
  59.970     322.00
  59.980     328.00
  59.990     341.00
  60.000     312.00
  60.010     324.00
  60.020     295.00
  60.030     333.00
  60.040     300.00
  60.050     311.00
  60.060     318.00
  60.070     297.00
  60.080     297.00
  60.090     336.00
  60.100     280.00
  60.110     341.00
  60.120     327.00
  60.130     303.00
  60.140     269.00
  60.150     291.00
  60.160     313.00
  60.170     328.00
  60.180     292.00
  60.190     299.00
  60.200     300.00
  60.210     324.00
  60.220     312.00
  60.230     317.00
  60.240     329.00
  60.250     301.00
  60.260     302.00
  60.270     292.00
  60.280     342.00
  60.290     310.00
  60.300     280.00
  60.310     314.00
  60.320     332.00
  60.330     315.00
  60.340     311.00
  60.350     323.00
  60.360     325.00
  60.370     331.00
  60.380     308.00
  60.390     312.00
  60.400     323.00
  60.410     298.00
  60.420     336.00
  60.430     308.00
  60.440     285.00
  60.450     305.00
  60.460     331.00
  60.470     338.00
  60.480     310.00
  60.490     291.00
  60.500     316.00
  60.510     320.00
  60.520     318.00
  60.530     317.00
  60.540     304.00
  60.550     285.00
  60.560     314.00
  60.570     305.00
  60.580     312.00
  60.590     297.00
  60.600     295.00
  60.610     316.00
  60.620     283.00
  60.630     327.00
  60.640     302.00
  60.650     312.00
  60.660     321.00
  60.670     295.00
  60.680     326.00
  60.690     338.00
  60.700     328.00
  60.710     352.00
  60.720     309.00
  60.730     326.00
  60.740     312.00
  60.750     316.00
  60.760     314.00
  60.770     302.00
  60.780     294.00
  60.790     315.00
  60.800     334.00
  60.810     332.00
  60.820     327.00
  60.830     338.00
  60.840     300.00
  60.850     302.00
  60.860     328.00
  60.870     309.00
  60.880     300.00
  60.890     343.00
  60.900     317.00
  60.910     307.00
  60.920     320.00
  60.930     352.00
  60.940     327.00
  60.950     304.00
  60.960     325.00
  60.970     311.00
  60.980     335.00
  60.990     355.00
  61.000     308.00
  61.010     297.00
  61.020     293.00
  61.030     312.00
  61.040     322.00
  61.050     307.00
  61.060     316.00
  61.070     324.00
  61.080     323.00
  61.090     322.00
  61.100     334.00
  61.110     306.00
  61.120     314.00
  61.130     310.00
  61.140     306.00
  61.150     336.00
  61.160     299.00
  61.170     339.00
  61.180     297.00
  61.190     289.00
  61.200     333.00
  61.210     331.00
  61.220     307.00
  61.230     337.00
  61.240     329.00
  61.250     310.00
  61.260     265.00
  61.270     315.00
  61.280     276.00
  61.290     324.00
  61.300     321.00
  61.310     334.00
  61.320     319.00
  61.330     310.00
  61.340     349.00
  61.350     316.00
  61.360     316.00
  61.370     327.00
  61.380     306.00
  61.390     300.00
  61.400     328.00
  61.410     339.00
  61.420     328.00
  61.430     316.00
  61.440     344.00
  61.450     346.00
  61.460     303.00
  61.470     320.00
  61.480     341.00
  61.490     301.00
  61.500     320.00
  61.510     317.00
  61.520     294.00
  61.530     348.00
  61.540     319.00
  61.550     316.00
  61.560     306.00
  61.570     308.00
  61.580     340.00
  61.590     332.00
  61.600     313.00
  61.610     298.00
  61.620     318.00
  61.630     333.00
  61.640     316.00
  61.650     322.00
  61.660     328.00
  61.670     337.00
  61.680     341.00
  61.690     334.00
  61.700     289.00
  61.710     287.00
  61.720     286.00
  61.730     303.00
  61.740     307.00
  61.750     318.00
  61.760     299.00
  61.770     346.00
  61.780     283.00
  61.790     316.00
  61.800     315.00
  61.810     326.00
  61.820     317.00
  61.830     285.00
  61.840     293.00
  61.850     355.00
  61.860     311.00
  61.870     332.00
  61.880     324.00
  61.890     322.00
  61.900     311.00
  61.910     310.00
  61.920     284.00
  61.930     323.00
  61.940     326.00
  61.950     307.00
  61.960     300.00
  61.970     302.00
  61.980     300.00
  61.990     286.00
  62.000     347.00
  62.010     304.00
  62.020     336.00
  62.030     343.00
  62.040     352.00
  62.050     302.00
  62.060     317.00
  62.070     314.00
  62.080     319.00
  62.090     343.00
  62.100     324.00
  62.110     323.00
  62.120     314.00
  62.130     311.00
  62.140     292.00
  62.150     282.00
  62.160     321.00
  62.170     327.00
  62.180     319.00
  62.190     351.00
  62.200     337.00
  62.210     324.00
  62.220     314.00
  62.230     337.00
  62.240     317.00
  62.250     299.00
  62.260     350.00
  62.270     310.00
  62.280     339.00
  62.290     303.00
  62.300     323.00
  62.310     322.00
  62.320     332.00
  62.330     292.00
  62.340     303.00
  62.350     284.00
  62.360     307.00
  62.370     332.00
  62.380     322.00
  62.390     305.00
  62.400     304.00
  62.410     288.00
  62.420     324.00
  62.430     312.00
  62.440     296.00
  62.450     297.00
  62.460     265.00
  62.470     309.00
  62.480     330.00
  62.490     303.00
  62.500     323.00
  62.510     311.00
  62.520     321.00
  62.530     340.00
  62.540     316.00
  62.550     307.00
  62.560     314.00
  62.570     354.00
  62.580     357.00
  62.590     297.00
  62.600     332.00
  62.610     321.00
  62.620     299.00
  62.630     314.00
  62.640     325.00
  62.650     339.00
  62.660     346.00
  62.670     314.00
  62.680     319.00
  62.690     318.00
  62.700     320.00
  62.710     345.00
  62.720     325.00
  62.730     321.00
  62.740     308.00
  62.750     313.00
  62.760     314.00
  62.770     299.00
  62.780     313.00
  62.790     299.00
  62.800     333.00
  62.810     295.00
  62.820     302.00
  62.830     299.00
  62.840     322.00
  62.850     307.00
  62.860     315.00
  62.870     308.00
  62.880     328.00
  62.890     299.00
  62.900     319.00
  62.910     322.00
  62.920     348.00
  62.930     311.00
  62.940     333.00
  62.950     285.00
  62.960     300.00
  62.970     323.00
  62.980     322.00
  62.990     321.00
  63.000     316.00
  63.010     303.00
  63.020     322.00
  63.030     331.00
  63.040     300.00
  63.050     300.00
  63.060     339.00
  63.070     298.00
  63.080     336.00
  63.090     334.00
  63.100     315.00
  63.110     326.00
  63.120     317.00
  63.130     352.00
  63.140     309.00
  63.150     303.00
  63.160     292.00
  63.170     326.00
  63.180     343.00
  63.190     319.00
  63.200     343.00
  63.210     307.00
  63.220     327.00
  63.230     341.00
  63.240     331.00
  63.250     318.00
  63.260     315.00
  63.270     308.00
  63.280     299.00
  63.290     334.00
  63.300     328.00
  63.310     352.00
  63.320     344.00
  63.330     332.00
  63.340     330.00
  63.350     344.00
  63.360     317.00
  63.370     301.00
  63.380     295.00
  63.390     320.00
  63.400     317.00
  63.410     321.00
  63.420     308.00
  63.430     309.00
  63.440     369.00
  63.450     349.00
  63.460     339.00
  63.470     309.00
  63.480     332.00
  63.490     323.00
  63.500     320.00
  63.510     328.00
  63.520     344.00
  63.530     342.00
  63.540     318.00
  63.550     313.00
  63.560     334.00
  63.570     372.00
  63.580     327.00
  63.590     333.00
  63.600     324.00
  63.610     328.00
  63.620     329.00
  63.630     311.00
  63.640     336.00
  63.650     342.00
  63.660     368.00
  63.670     330.00
  63.680     309.00
  63.690     327.00
  63.700     298.00
  63.710     325.00
  63.720     293.00
  63.730     359.00
  63.740     301.00
  63.750     299.00
  63.760     291.00
  63.770     328.00
  63.780     316.00
  63.790     333.00
  63.800     330.00
  63.810     329.00
  63.820     305.00
  63.830     336.00
  63.840     326.00
  63.850     320.00
  63.860     314.00
  63.870     332.00
  63.880     311.00
  63.890     321.00
  63.900     327.00
  63.910     294.00
  63.920     321.00
  63.930     369.00
  63.940     296.00
  63.950     327.00
  63.960     290.00
  63.970     317.00
  63.980     330.00
  63.990     339.00
  64.000     299.00
  64.010     293.00
  64.020     326.00
  64.030     308.00
  64.040     300.00
  64.050     345.00
  64.060     299.00
  64.070     312.00
  64.080     298.00
  64.090     293.00
  64.100     301.00
  64.110     311.00
  64.120     324.00
  64.130     332.00
  64.140     314.00
  64.150     299.00
  64.160     311.00
  64.170     348.00
  64.180     303.00
  64.190     348.00
  64.200     343.00
  64.210     327.00
  64.220     342.00
  64.230     307.00
  64.240     317.00
  64.250     321.00
  64.260     317.00
  64.270     334.00
  64.280     335.00
  64.290     310.00
  64.300     335.00
  64.310     312.00
  64.320     337.00
  64.330     323.00
  64.340     320.00
  64.350     322.00
  64.360     313.00
  64.370     302.00
  64.380     309.00
  64.390     314.00
  64.400     317.00
  64.410     311.00
  64.420     328.00
  64.430     323.00
  64.440     329.00
  64.450     309.00
  64.460     313.00
  64.470     346.00
  64.480     328.00
  64.490     319.00
  64.500     305.00
