27.51   0.0
27.52   0.0
27.53   0.0
27.54   0.0
27.55   0.0
27.56   0.0
27.57   0.0
27.58   0.0
27.59   0.0
27.6   0.0
27.61   0.0
27.62   0.0
27.63   0.0
27.64   0.0
27.65   0.0
27.66   0.0
27.67   0.0
27.68   0.0
27.69   0.0
27.7   0.0
27.71   0.0
27.72   0.0
27.73   0.0
27.74   0.0
27.75   0.0
27.76   0.0
27.77   0.0
27.78   0.000812725360446
27.79   0.0
27.8   0.0
27.81   0.0
27.82   0.0
27.83   0.0
27.84   0.0
27.85   0.0
27.86   0.0
27.87   0.0
27.88   0.0
27.89   0.0
27.9   0.0
27.91   0.0
27.92   0.0
27.93   0.0
27.94   0.0
27.95   0.000778701019039
27.96   7.63134189027e-05
27.97   0.0
27.98   0.0
27.99   0.0
28.0   0.0
28.01   0.0
28.02   0.0
28.03   0.0
28.04   0.0
28.05   0.0
28.06   0.0
28.07   0.0
28.08   0.0
28.09   0.0
28.1   0.0
28.11   0.0
28.12   0.0
28.13   0.0
28.14   0.0
28.15   0.0
28.16   0.000417025141872
28.17   0.0
28.18   0.0
28.19   0.0
28.2   0.0
28.21   0.0
28.22   0.0
28.23   0.000125541038665
28.24   0.000842371976662
28.25   0.000435623172458
28.26   0.0
28.27   0.000599060528509
28.28   0.00124276933504
28.29   0.00156740447458
28.3   0.00144736509269
28.31   0.0
28.32   0.0
28.33   0.000988324050045
28.34   0.000961904051471
28.35   1.70275211483e-05
28.36   0.00158369364168
28.37   0.00142753261699
28.38   0.00030142347357
28.39   0.00223465515024
28.4   0.00255726589112
28.41   0.00124582674528
28.42   0.00235913419319
28.43   0.0036501144362
28.44   0.00410525080317
28.45   0.00583750653754
28.46   0.00697117162693
28.47   0.00844821313457
28.48   0.010609348984
28.49   0.0151292374746
28.5   0.0241165386297
28.51   0.0383466925005
28.52   0.0530794880589
28.53   0.0795753504876
28.54   0.119355898336
28.55   0.175225433799
28.56   0.257838308307
28.57   0.371773663422
28.58   0.505208296877
28.59   0.664987076874
28.6   0.822470167014
28.61   0.934749028288
28.62   1.0
28.63   0.985849200811
28.64   0.898275004887
28.65   0.755069122385
28.66   0.586213167751
28.67   0.413388767111
28.68   0.269361140405
28.69   0.161633507206
28.7   0.106671637121
28.71   0.0719554681423
28.72   0.0458221418173
28.73   0.0355952226868
28.74   0.0307109691439
28.75   0.0265762591895
28.76   0.0220370651848
28.77   0.0211100627848
28.78   0.0203836702439
28.79   0.0174251386182
28.8   0.0139669584798
28.81   0.0119634327731
28.82   0.010462176502
28.83   0.00844007292865
28.84   0.00634091344826
28.85   0.00569389016966
28.86   0.00544365921586
28.87   0.00377425336334
28.88   0.00315628828682
28.89   0.00418913464415
28.9   0.00302608319628
28.91   0.00112290428688
28.92   0.00151255026121
28.93   0.00239336990456
28.94   0.00185190280369
28.95   0.00135356270212
28.96   0.00244906790535
28.97   0.00290272813016
28.98   0.00299196097056
28.99   0.00227565769917
29.0   0.00124002860362
29.01   0.000192222650181
29.02   0.00211120102157
29.03   0.00401101898915
29.04   0.00340684992839
29.05   0.00147645256831
29.06   0.00119830222461
29.07   0.000915639328791
29.08   0.000358684359016
29.09   0.000637852242565
29.1   0.000596726116655
29.11   0.000731995502046
29.12   0.00170797294483
29.13   0.00242383855444
29.14   0.00318303407444
29.15   0.00119045570621
29.16   0.0
29.17   0.00102167247248
29.18   0.00259493951849
29.19   0.00181358488557
29.2   0.00309339580221
29.21   0.00268341256863
29.22   0.00255642677689
29.23   0.00337776367149
29.24   0.00200960254941
29.25   0.0
29.26   2.71556303885e-05
29.27   0.000703732170164
29.28   0.000517107940356
29.29   0.0
29.3   0.00107213179354
29.31   0.00259014826035
29.32   0.00271467391578
29.33   0.00157973330506
29.34   0.00184830323502
29.35   0.00242956238879
29.36   0.00191314721884
29.37   0.000282669220607
29.38   0.00065015865963
29.39   0.00125453311755
29.4   0.000400195172084
29.41   0.000938628990442
29.42   0.00306116582381
29.43   0.00242712455215
29.44   0.00109636900599
29.45   0.000621386929377
29.46   0.00122733677861
29.47   0.0022772266098
29.48   0.00191869744938
29.49   0.00178462332268
29.5   0.00243335423585
29.51   0.00234850708195
29.52   0.00165475055477
29.53   0.00144823009656
29.54   0.00139733808794
29.55   0.000730505457035
29.56   0.00189385358672
29.57   0.00155428024753
29.58   0.00294441508342
29.59   0.00254133424333
29.6   0.000779094708812
29.61   0.000186897233227
29.62   0.00166335229735
29.63   0.00247234015101
29.64   0.00276464142863
29.65   0.0018607538826
29.66   0.00168020335467
29.67   0.00181268105098
29.68   0.00129381663847
29.69   0.00144854913491
29.7   0.000829993781049
29.71   0.00143194939594
29.72   0.0033361800466
29.73   0.00345529797955
29.74   0.00158670054051
29.75   0.0
29.76   0.00113451994025
29.77   0.00137552876903
29.78   0.0
29.79   0.00230029708444
29.8   0.00494507464996
29.81   0.0018407817943
29.82   0.000970176210624
29.83   0.00197839177225
29.84   0.00239585406857
29.85   0.00299797059334
29.86   0.00196023626767
29.87   0.0
29.88   0.00265054590317
29.89   0.00395694284212
29.9   0.0
29.91   0.0
29.92   0.0
29.93   0.0
29.94   0.0
29.95   0.0
29.96   0.0
29.97   0.0
