27.52   0.0
27.54   0.0
27.56   0.0
27.58   0.0
27.6   0.0
27.62   0.0
27.64   0.0
27.66   0.0
27.68   0.0
27.7   0.0
27.72   0.0
27.74   0.0
27.76   0.0
27.78   0.0
27.8   0.0
27.82   0.0034577509917
27.84   0.00149234941935
27.86   0.0
27.88   0.00103356191005
27.9   0.00493740961123
27.92   0.00829180634719
27.94   0.00745524418608
27.96   0.00249576164689
27.98   0.007605240343
28.0   0.0120716623369
28.02   0.0155262140535
28.04   0.0154405013723
28.06   0.0182675519667
28.08   0.0218500838966
28.1   0.0266132156933
28.12   0.0232657334416
28.14   0.0248763824267
28.16   0.0324845087112
28.18   0.0409903630618
28.2   0.0427665715302
28.22   0.0489116627255
28.24   0.0571339603369
28.26   0.0715229238902
28.28   0.0800069639975
28.3   0.0871866317879
28.32   0.102497755283
28.34   0.12357345169
28.36   0.141813706497
28.38   0.170662674462
28.4   0.20572886867
28.42   0.234956676259
28.44   0.280430456038
28.46   0.34490933295
28.48   0.404839904003
28.5   0.467044170562
28.52   0.555790710275
28.54   0.644335565737
28.56   0.718510828562
28.58   0.794861208878
28.6   0.868291698917
28.62   0.932291071919
28.64   0.972680113448
28.66   0.995163850977
28.68   1.0
28.7   0.968880007982
28.72   0.903981227428
28.74   0.839954579914
28.76   0.768959034829
28.78   0.685165228158
28.8   0.600274979026
28.82   0.523211073169
28.84   0.445612860324
28.86   0.381516106431
28.88   0.331459910344
28.9   0.287990052661
28.92   0.240854172938
28.94   0.201806436709
28.96   0.168862835453
28.98   0.145751146846
29.0   0.124862359455
29.02   0.109332936734
29.04   0.0945711644873
29.06   0.0873975880193
29.08   0.0763999892843
29.1   0.0588510829719
29.12   0.0536779711969
29.14   0.0543645417835
29.16   0.0464228629263
29.18   0.0412741158866
29.2   0.0391526323747
29.22   0.0342597866516
29.24   0.035085437369
29.26   0.0353952927505
29.28   0.0328308000169
29.3   0.0291059000532
29.32   0.0241811890367
29.34   0.0250786220791
29.36   0.0243994484211
29.38   0.0216724396942
29.4   0.020384279212
29.42   0.0216075977126
29.44   0.0177781608071
29.46   0.017023203802
29.48   0.01819256631
29.5   0.0194541341935
29.52   0.0165989658148
29.54   0.0136283738545
29.56   0.0126488561149
29.58   0.0141430764163
29.6   0.0156113430551
29.62   0.013827377402
29.64   0.0116917046077
29.66   0.0137400153739
29.68   0.014791235552
29.7   0.0121376893112
29.72   0.0111397713742
29.74   0.0133369399641
29.76   0.0127099514825
29.78   0.0
29.8   0.0
29.82   0.0
29.84   0.0
29.86   0.0
29.88   0.0
29.9   0.0
29.92   0.0
