10 51
10.05 58
10.10 65
10.15 58
10.20 61
10.25 56
10.30 46
10.35 55
10.40 50
10.45 67
10.50 63
10.55 55
10.60 61
10.65 53
10.70 61
10.75 53
10.80 57
10.85 58
10.90 47
10.95 50
11.00 59
11.05 49
11.10 62
11.15 71
11.20 57
11.25 51
11.30 50
11.35 52
11.40 57
11.45 54
11.50 62
11.55 58
11.60 58
11.65 48
11.70 48
11.75 59
11.80 57
11.85 64
11.90 56
11.95 49
12.00 50
12.05 61
12.10 40
12.15 50
12.20 52
12.25 42
12.30 42
12.35 60
12.40 60
12.45 57
12.50 43
12.55 63
12.60 48
12.65 60
12.70 67
12.75 56
12.80 53
12.85 42
12.90 58
12.95 44
13.00 53
13.05 55
13.10 36
13.15 57
13.20 47
13.25 55
13.30 50
13.35 38
13.40 45
13.45 41
13.50 38
13.55 47
13.60 46
13.65 50
13.70 51
13.75 46
13.80 46
13.85 49
13.90 52
13.95 38
14.00 39
14.05 52
14.10 54
14.15 48
14.20 45
14.25 42
14.30 40
14.35 45
14.40 40
14.45 48
14.50 36
14.55 45
14.60 50
14.65 45
14.70 48
14.75 39
14.80 51
14.85 38
14.90 35
14.95 38
15.00 41
15.05 47
15.10 41
15.15 35
15.20 37
15.25 43
15.30 40
15.35 40
15.40 43
15.45 46
15.50 55
15.55 34
15.60 35
15.65 47
15.70 44
15.75 38
15.80 38
15.85 37
15.90 36
15.95 33
16.00 44
16.05 38
16.10 27
16.15 46
16.20 36
16.25 35
16.30 45
16.35 34
16.40 46
16.45 31
16.50 41
16.55 33
16.60 41
16.65 33
16.70 37
16.75 35
16.80 36
16.85 33
16.90 26
16.95 44
17.00 39
17.05 32
17.10 26
17.15 40
17.20 24
17.25 38
17.30 38
17.35 31
17.40 27
17.45 30
17.50 35
17.55 35
17.60 45
17.65 25
17.70 29
17.75 38
17.80 32
17.85 31
17.90 34
17.95 14
18.00 19
18.05 24
18.10 26
18.15 38
18.20 30
18.25 30
18.30 23
18.35 25
18.40 29
18.45 28
18.50 33
18.55 24
18.60 19
18.65 31
18.70 19
18.75 29
18.80 25
18.85 34
18.90 32
18.95 26
19.00 24
19.05 18
19.10 25
19.15 24
19.20 16
19.25 27
19.30 25
19.35 29
19.40 17
19.45 15
19.50 22
19.55 14
19.60 18
19.65 17
19.70 21
19.75 18
19.80 21
19.85 32
19.90 23
19.95 12
20.00 14
20.05 18
20.10 15
20.15 24
20.20 25
20.25 24
20.30 26
20.35 18
20.40 26
20.45 19
20.50 19
20.55 13
20.60 15
20.65 21
20.70 25
20.75 20
20.80 29
20.85 73
20.90 51
20.95 31
21.00 28
21.05 22
21.10 12
21.15 24
21.20 20
21.25 17
21.30 16
21.35 18
21.40 15
21.45 22
21.50 13
21.55 27
21.60 8
21.65 20
21.70 19
21.75 22
21.80 12
21.85 17
21.90 20
21.95 21
22.00 18
22.05 21
22.10 19
22.15 17
22.20 25
22.25 9
22.30 16
22.35 14
22.40 14
22.45 23
22.50 16
22.55 11
22.60 19
22.65 12
22.70 29
22.75 19
22.80 18
22.85 17
22.90 19
22.95 20
23.00 26
23.05 19
23.10 26
23.15 26
23.20 23
23.25 23
23.30 27
23.35 22
23.40 29
23.45 32
23.50 30
23.55 31
23.60 35
23.65 39
23.70 41
23.75 59
23.80 52
23.85 70
23.90 69
23.95 88
24.00 104
24.05 167
24.10 194
24.15 183
24.20 165
24.25 127
24.30 100
24.35 71
24.40 58
24.45 58
24.50 56
24.55 53
24.60 39
24.65 38
24.70 36
24.75 35
24.80 37
24.85 36
24.90 20
24.95 24
25.00 26
25.05 25
25.10 21
25.15 20
25.20 21
25.25 20
25.30 15
25.35 24
25.40 21
25.45 16
25.50 17
25.55 12
25.60 14
25.65 19
25.70 18
25.75 18
25.80 16
25.85 18
25.90 17
25.95 16
26.00 15
26.05 13
26.10 12
26.15 18
26.20 18
26.25 17
26.30 10
26.35 22
26.40 21
26.45 25
26.50 22
26.55 32
26.60 54
26.65 74
26.70 41
26.75 25
26.80 18
26.85 15
26.90 12
26.95 13
27.00 12
27.05 16
27.10 13
27.15 15
27.20 15
27.25 14
27.30 14
27.35 21
27.40 9
27.45 16
27.50 19
27.55 20
27.60 20
27.65 7
27.70 10
27.75 23
27.80 21
27.85 20
27.90 14
27.95 12
28.00 22
28.05 14
28.10 11
28.15 19
28.20 16
28.25 19
28.30 16
28.35 15
28.40 16
28.45 9
28.50 18
28.55 9
28.60 14
28.65 15
28.70 15
28.75 12
28.80 9
28.85 11
28.90 11
28.95 15
29.00 13
29.05 22
29.10 18
29.15 17
29.20 18
29.25 24
29.30 29
29.35 42
29.40 33
29.45 35
29.50 31
29.55 26
29.60 18
29.65 12
29.70 17
29.75 11
29.80 13
29.85 17
29.90 15
29.95 9
30.00 14
30.05 17
30.10 19
30.15 12
30.20 10
30.25 14
30.30 18
30.35 16
30.40 19
30.45 18
30.50 16
30.55 21
30.60 16
30.65 15
30.70 16
30.75 10
30.80 14
30.85 22
30.90 19
30.95 19
31.00 15
31.05 9
31.10 19
31.15 19
31.20 22
31.25 19
31.30 19
31.35 26
31.40 26
31.45 31
31.50 23
31.55 26
31.60 26
31.65 18
31.70 23
31.75 19
31.80 30
31.85 26
31.90 29
31.95 42
32.00 36
32.05 31
32.10 41
32.15 39
32.20 51
32.25 54
32.30 40
32.35 54
32.40 43
32.45 53
32.50 52
32.55 97
32.60 63
32.65 81
32.70 104
32.75 94
32.80 143
32.85 184
32.90 216
32.95 256
33.00 328
33.05 455
33.10 561
33.15 609
33.20 553
33.25 470
33.30 322
33.35 264
33.40 183
33.45 175
33.50 153
33.55 125
33.60 97
33.65 89
33.70 69
33.75 73
33.80 62
33.85 65
33.90 54
33.95 49
34.00 46
34.05 40
34.10 50
34.15 39
34.20 39
34.25 44
34.30 20
34.35 35
34.40 28
34.45 38
34.50 36
34.55 36
34.60 30
34.65 32
34.70 25
34.75 20
34.80 13
34.85 29
34.90 28
34.95 42
35.00 33
35.05 46
35.10 37
35.15 47
35.20 52
35.25 63
35.30 77
35.35 104
35.40 121
35.45 163
35.50 279
35.55 439
35.60 569
35.65 606
35.70 512
35.75 404
35.80 267
35.85 190
35.90 102
35.95 96
36.00 57
36.05 55
36.10 49
36.15 59
36.20 46
36.25 35
36.30 24
36.35 27
36.40 34
36.45 29
36.50 22
36.55 26
36.60 22
36.65 14
36.70 16
36.75 18
36.80 18
36.85 13
36.90 13
36.95 17
37.00 18
37.05 15
37.10 10
37.15 11
37.20 21
37.25 17
37.30 11
37.35 15
37.40 10
37.45 12
37.50 19
37.55 10
37.60 13
37.65 14
37.70 10
37.75 6
37.80 22
37.85 11
37.90 11
37.95 11
38.00 11
38.05 11
38.10 12
38.15 10
38.20 13
38.25 7
38.30 11
38.35 10
38.40 6
38.45 7
38.50 12
38.55 15
38.60 14
38.65 6
38.70 8
38.75 13
38.80 10
38.85 15
38.90 11
38.95 9
39.00 14
39.05 17
39.10 18
39.15 25
39.20 30
39.25 35
39.30 29
39.35 36
39.40 33
39.45 19
39.50 20
39.55 15
39.60 11
39.65 24
39.70 20
39.75 11
39.80 16
39.85 22
39.90 18
39.95 13
40.00 8
40.05 13
40.10 14
40.15 22
40.20 25
40.25 25
40.30 18
40.35 17
40.40 19
40.45 28
40.50 34
40.55 42
40.60 50
40.65 53
40.70 64
40.75 109
40.80 154
40.85 176
40.90 208
40.95 157
41.00 123
41.05 107
41.10 58
41.15 45
41.20 41
41.25 25
41.30 33
41.35 20
41.40 20
41.45 18
41.50 16
41.55 20
41.60 15
41.65 19
41.70 19
41.75 15
41.80 15
41.85 8
41.90 19
41.95 12
42.00 8
42.05 15
42.10 11
42.15 12
42.20 10
42.25 13
42.30 7
42.35 7
42.40 18
42.45 14
42.50 8
42.55 11
42.60 9
42.65 5
42.70 22
42.75 4
42.80 13
42.85 9
42.90 8
42.95 10
43.00 15
43.05 13
43.10 16
43.15 16
43.20 13
43.25 20
43.30 15
43.35 16
43.40 13
43.45 22
43.50 16
43.55 16
43.60 26
43.65 14
43.70 11
43.75 13
43.80 11
43.85 9
43.90 10
43.95 11
44.00 9
44.05 14
44.10 5
44.15 8
44.20 9
44.25 8
44.30 10
44.35 9
44.40 10
44.45 15
44.50 7
44.55 10
44.60 13
44.65 11
44.70 6
44.75 4
44.80 8
44.85 9
44.90 11
44.95 11
45.00 10
45.05 9
45.10 9
45.15 4
45.20 10
45.25 5
45.30 6
45.35 8
45.40 6
45.45 6
45.50 4
45.55 12
45.60 8
45.65 8
45.70 10
45.75 9
45.80 7
45.85 7
45.90 11
45.95 9
46.00 7
46.05 8
46.10 12
46.15 10
46.20 11
46.25 7
46.30 14
46.35 6
46.40 5
46.45 12
46.50 7
46.55 8
46.60 10
46.65 9
46.70 13
46.75 7
46.80 9
46.85 7
46.90 8
46.95 8
47.00 12
47.05 10
47.10 14
47.15 16
47.20 7
47.25 16
47.30 12
47.35 13
47.40 12
47.45 9
47.50 12
47.55 8
47.60 14
47.65 11
47.70 10
47.75 8
47.80 13
47.85 11
47.90 10
47.95 18
48.00 6
48.05 18
48.10 9
48.15 9
48.20 18
48.25 17
48.30 21
48.35 27
48.40 22
48.45 20
48.50 27
48.55 14
48.60 33
48.65 22
48.70 28
48.75 27
48.80 26
48.85 24
48.90 42
48.95 38
49.00 49
49.05 58
49.10 60
49.15 73
49.20 70
49.25 88
49.30 106
49.35 126
49.40 157
49.45 207
49.50 177
49.55 193
49.60 153
49.65 138
49.70 97
49.75 77
49.80 80
49.85 69
49.90 47
49.95 41
50.00 37
50.05 39
50.10 34
50.15 28
50.20 32
50.25 30
50.30 25
50.35 24
50.40 25
50.45 14
50.50 14
50.55 14
50.60 15
50.65 12
50.70 19
50.75 14
50.80 21
50.85 14
50.90 16
50.95 16
51.00 16
51.05 9
51.10 3
51.15 10
51.20 12
51.25 11
51.30 10
51.35 8
51.40 6
51.45 18
51.50 8
51.55 7
51.60 10
51.65 13
51.70 8
51.75 14
51.80 11
51.85 9
51.90 10
51.95 21
52.00 13
52.05 10
52.10 11
52.15 8
52.20 13
52.25 11
52.30 15
52.35 12
52.40 12
52.45 12
52.50 7
52.55 14
52.60 15
52.65 6
52.70 6
52.75 11
52.80 15
52.85 16
52.90 18
52.95 28
53.00 12
53.05 28
53.10 17
53.15 16
53.20 22
53.25 25
53.30 25
53.35 32
53.40 26
53.45 26
53.50 44
53.55 44
53.60 46
53.65 38
53.70 63
53.75 86
53.80 103
53.85 114
53.90 164
53.95 222
54.00 270
54.05 315
54.10 316
54.15 290
54.20 211
54.25 180
54.30 163
54.35 119
54.40 74
54.45 72
54.50 55
54.55 45
54.60 41
54.65 34
54.70 22
54.75 38
54.80 23
54.85 23
54.90 30
54.95 20
55.00 23
55.05 28
55.10 17
55.15 11
55.20 11
55.25 12
55.30 17
55.35 15
55.40 12
55.45 10
55.50 20
55.55 17
55.60 15
55.65 11
55.70 14
55.75 15
55.80 14
55.85 15
55.90 10
55.95 7
56.00 8
56.05 11
56.10 13
56.15 13
56.20 12
56.25 15
56.30 14
56.35 14
56.40 10
56.45 23
56.50 19
56.55 12
56.60 7
56.65 13
56.70 12
56.75 15
56.80 16
56.85 13
56.90 18
56.95 14
57.00 18
57.05 19
57.10 14
57.15 22
57.20 22
57.25 32
57.30 23
57.35 35
57.40 33
57.45 49
57.50 70
57.55 62
57.60 66
57.65 66
57.70 53
57.75 44
57.80 44
57.85 37
57.90 34
57.95 21
58.00 25
58.05 32
58.10 18
58.15 15
58.20 19
58.25 10
58.30 20
58.35 16
58.40 16
58.45 11
58.50 13
58.55 11
58.60 7
58.65 12
58.70 7
58.75 5
58.80 12
58.85 14
58.90 9
58.95 11
59.00 13
59.05 8
59.10 4
59.15 9
59.20 12
59.25 9
59.30 12
59.35 8
59.40 9
59.45 7
59.50 12
59.55 15
59.60 11
59.65 7
59.70 7
59.75 20
59.80 11
59.85 10
59.90 13
59.95 20
60.00 13
60.05 11
60.10 7
60.15 11
60.20 12
60.25 11
60.30 11
60.35 14
60.40 11
60.45 13
60.50 16
60.55 15
60.60 18
60.65 10
60.70 11
60.75 13
60.80 15
60.85 19
60.90 13
60.95 12
61.00 12
61.05 12
61.10 15
61.15 10
61.20 16
61.25 12
61.30 8
61.35 16
61.40 11
61.45 18
61.50 17
61.55 9
61.60 19
61.65 20
61.70 21
61.75 22
61.80 24
61.85 28
61.90 31
61.95 25
62.00 42
62.05 40
62.10 53
62.15 59
62.20 70
62.25 83
62.30 118
62.35 114
62.40 149
62.45 160
62.50 134
62.55 140
62.60 126
62.65 95
62.70 89
62.75 93
62.80 74
62.85 57
62.90 40
62.95 39
63.00 52
63.05 44
63.10 40
63.15 29
63.20 44
63.25 21
63.30 41
63.35 28
63.40 33
63.45 29
63.50 37
63.55 47
63.60 37
63.65 50
63.70 69
63.75 62
63.80 76
63.85 97
63.90 113
63.95 149
64.00 176
64.05 178
64.10 154
64.15 158
64.20 145
64.25 104
64.30 108
64.35 113
64.40 69
64.45 49
64.50 43
64.55 47
64.60 33
64.65 22
64.70 23
64.75 22
64.80 17
64.85 13
64.90 20
64.95 9
65.00 14
65.05 8
65.10 14
65.15 4
65.20 15
65.25 13
65.30 12
65.35 11
65.40 14
65.45 9
65.50 14
65.55 14
65.60 14
65.65 7
65.70 11
65.75 6
65.80 12
65.85 14
65.90 10
65.95 6
66.00 8
66.05 9
66.10 7
66.15 12
66.20 6
66.25 10
66.30 6
66.35 10
66.40 6
66.45 10
66.50 9
66.55 7
66.60 5
66.65 9
66.70 5
66.75 7
66.80 10
66.85 5
66.90 7
66.95 10
67.00 4
67.05 3
67.10 8
67.15 11
67.20 6
67.25 9
67.30 7
67.35 5
67.40 12
67.45 6
67.50 8
67.55 5
67.60 5
67.65 6
67.70 7
67.75 7
67.80 11
67.85 7
67.90 13
67.95 10
68.00 12
68.05 10
68.10 16
68.15 10
68.20 9
68.25 3
68.30 13
68.35 9
68.40 5
68.45 3
68.50 12
68.55 10
68.60 8
68.65 14
68.70 9
68.75 7
68.80 9
68.85 12
68.90 10
68.95 6
69.00 6
69.05 9
69.10 8
69.15 19
69.20 14
69.25 11
69.30 12
69.35 11
69.40 17
69.45 11
69.50 18
69.55 20
69.60 23
69.65 19
69.70 22
69.75 20
69.80 16
69.85 14
69.90 14
69.95 11
70.00 17
70.05 13
70.10 13
70.15 8
70.20 7
70.25 9
70.30 8
70.35 7
70.40 3
70.45 9
70.50 7
70.55 12
70.60 19
70.65 9
70.70 8
70.75 6
70.80 11
70.85 8
70.90 7
70.95 9
71.00 13
71.05 6
71.10 13
71.15 8
71.20 14
71.25 17
71.30 14
71.35 14
71.40 16
71.45 22
71.50 23
71.55 28
71.60 27
71.65 25
71.70 47
71.75 34
71.80 49
71.85 52
71.90 62
71.95 72
72.00 52
72.05 50
72.10 63
72.15 55
72.20 41
72.25 49
72.30 35
72.35 29
72.40 45
72.45 24
72.50 31
72.55 25
72.60 21
72.65 23
72.70 25
72.75 14
72.80 17
72.85 17
72.90 13
72.95 13
73.00 15
73.05 10
73.10 6
73.15 9
73.20 14
73.25 7
73.30 5
73.35 9
73.40 6
73.45 7
73.50 10
73.55 10
73.60 2
73.65 11
73.70 7
73.75 7
73.80 6
73.85 9
73.90 9
73.95 2
74.00 8
74.05 6
74.10 10
74.15 7
74.20 7
74.25 3
74.30 6
74.35 11
74.40 7
74.45 8
74.50 9
74.55 13
74.60 10
74.65 9
74.70 16
74.75 4
74.80 9
74.85 13
74.90 10
74.95 5
75.00 9
75.05 14
75.10 10
75.15 11
75.20 18
75.25 12
75.30 26
75.35 41
75.40 34
75.45 34
75.50 41
75.55 33
75.60 36
75.65 41
75.70 40
75.75 20
75.80 26
75.85 30
75.90 18
75.95 22
76.00 14
76.05 6
76.10 13
76.15 12
76.20 5
76.25 10
76.30 7
76.35 10
76.40 9
76.45 6
76.50 8
76.55 10
76.60 8
76.65 6
76.70 10
76.75 7
76.80 4
76.85 6
76.90 6
76.95 4
77.00 9
77.05 8
77.10 7
77.15 4
77.20 9
77.25 2
77.30 5
77.35 10
77.40 7
77.45 6
77.50 8
77.55 9
77.60 15
77.65 19
77.70 15
77.75 17
77.80 19
77.85 18
77.90 22
77.95 15
78.00 14
78.05 14
78.10 8
78.15 14
78.20 6
78.25 15
78.30 6
78.35 12
78.40 6
78.45 9
78.50 8
78.55 14
78.60 16
78.65 16
78.70 11
78.75 9
78.80 11
78.85 8
78.90 11
78.95 17
79.00 9
79.05 14
79.10 14
79.15 11
79.20 14
79.25 9
79.30 9
79.35 9
79.40 8
79.45 9
79.50 7
79.55 4
79.60 4
79.65 3
79.70 4
79.75 14
79.80 7
79.85 8
79.90 9
79.95 9
80.00 7
80.05 9
80.10 13
80.15 14
80.20 11
80.25 19
80.30 21
80.35 16
80.40 7
80.45 26
80.50 22
80.55 22
80.60 20
80.65 15
80.70 32
80.75 35
80.80 26
80.85 30
80.90 25
80.95 22
81.00 20
81.05 21
81.10 15
81.15 16
81.20 7
81.25 13
81.30 11
81.35 12
81.40 9
81.45 7
81.50 13
81.55 13
81.60 11
81.65 10
81.70 13
81.75 8
81.80 9
81.85 16
81.90 8
81.95 11
82.00 7
82.05 15
82.10 7
82.15 8
82.20 8
82.25 14
82.30 9
82.35 12
82.40 6
82.45 12
82.50 11
82.55 24
82.60 21
82.65 13
82.70 17
82.75 16
82.80 28
82.85 30
82.90 22
82.95 32
83.00 31
83.05 35
83.10 29
83.15 27
83.20 24
83.25 20
83.30 27
83.35 15
83.40 10
83.45 15
83.50 17
83.55 14
83.60 13
83.65 11
83.70 14
83.75 22
83.80 8
83.85 11
83.90 15
83.95 14
84.00 14
84.05 9
84.10 10
84.15 15
84.20 11
84.25 13
84.30 10
84.35 20
84.40 11
84.45 15
84.50 14
84.55 17
84.60 15
84.65 17
84.70 25
84.75 34
84.80 31
84.85 32
84.90 27
84.95 48
85.00 38
85.05 40
85.10 28
85.15 29
85.20 37
85.25 23
85.30 20
85.35 22
85.40 16
85.45 17
85.50 19
85.55 20
85.60 10
85.65 8
85.70 17
85.75 9
85.80 13
85.85 8
85.90 9
85.95 17
86.00 5
86.05 8
86.10 11
86.15 4
86.20 4
86.25 11
86.30 6
86.35 16
86.40 7
86.45 6
86.50 5
86.55 6
86.60 10
86.65 3
86.70 9
86.75 3
86.80 3
86.85 6
86.90 5
86.95 5
87.00 10
87.05 8
87.10 9
87.15 10
87.20 8
87.25 7
87.30 6
87.35 11
87.40 14
87.45 8
87.50 11
87.55 5
87.60 5
87.65 11
87.70 8
87.75 7
87.80 12
87.85 10
87.90 9
87.95 11
88.00 6
88.05 16
88.10 13
88.15 16
88.20 15
88.25 16
88.30 12
88.35 33
88.40 29
88.45 30
88.50 38
88.55 40
88.60 34
88.65 49
88.70 33
88.75 35
88.80 24
88.85 35
88.90 35
88.95 40
89.00 21
89.05 16
89.10 22
89.15 17
89.20 10
89.25 13
89.30 12
89.35 11
89.40 8
89.45 17
89.50 9
89.55 11
89.60 4
89.65 8
89.70 8
89.75 11
89.80 10
89.85 6
89.90 8
89.95 4
90.00 7
90.05 9
90.10 5
90.15 7
90.20 7
90.25 6
90.30 9
90.35 10
90.40 5
90.45 4
90.50 9
90.55 7
90.60 6
90.65 2
90.70 4
90.75 4
90.80 11
90.85 5
90.90 7
90.95 7
91.00 7
91.05 8
91.10 10
91.15 14
91.20 4
91.25 8
91.30 9
91.35 3
91.40 9
91.45 7
91.50 13
91.55 9
91.60 6
91.65 9
91.70 12
91.75 7
91.80 15
91.85 12
91.90 2
91.95 5
92.00 13
92.05 6
92.10 9
92.15 12
92.20 5
92.25 9
92.30 4
92.35 7
92.40 2
92.45 10
92.50 11
92.55 13
92.60 9
92.65 13
92.70 9
92.75 4
92.80 9
92.85 10
92.90 10
92.95 15
93.00 13
93.05 8
93.10 16
93.15 22
93.20 14
93.25 19
93.30 16
93.35 22
93.40 27
93.45 33
93.50 31
93.55 38
93.60 31
93.65 38
93.70 38
93.75 44
93.80 36
93.85 32
93.90 27
93.95 41
94.00 26
94.05 29
94.10 24
94.15 25
94.20 21
94.25 22
94.30 14
94.35 22
94.40 15
94.45 9
94.50 14
94.55 12
94.60 11
94.65 18
94.70 12
94.75 14
94.80 9
94.85 12
94.90 14
94.95 7
95.00 17
95.05 16
95.10 11
95.15 15
95.20 14
95.25 16
95.30 14
95.35 18
95.40 12
95.45 11
95.50 11
95.55 21
95.60 18
95.65 19
95.70 18
95.75 16
95.80 18
95.85 14
95.90 18
95.95 10
96.00 11
96.05 15
96.10 14
96.15 13
96.20 20
96.25 11
96.30 7
96.35 9
96.40 8
96.45 6
96.50 9
96.55 12
96.60 10
96.65 14
96.70 6
96.75 10
96.80 5
96.85 7
96.90 7
96.95 7
97.00 5
97.05 3
97.10 5
97.15 8
97.20 9
97.25 5
97.30 9
97.35 5
97.40 5
97.45 4
97.50 6
97.55 7
97.60 4
97.65 3
97.70 4
97.75 7
97.80 4
97.85 3
97.90 6
97.95 4
98.00 3
98.05 4
98.10 2
98.15 4
98.20 3
98.25 4
98.30 6
98.35 6
98.40 6
98.45 0
98.50 5
98.55 5
98.60 4
98.65 8
98.70 4
98.75 3
98.80 5
98.85 4
98.90 4
98.95 4
99.00 5
99.05 5
99.10 1
99.15 10
99.20 7
99.25 2
99.30 7
99.35 6
99.40 4
99.45 5
99.50 4
99.55 4
99.60 7
99.65 3
99.70 8
99.75 5
99.80 8
99.85 6
99.90 7
99.95 6
100.00 6
