10 957
10.05 951
10.10 957
10.15 901
10.20 937
10.25 993
10.30 914
10.35 951
10.40 898
10.45 970
10.50 953
10.55 962
10.60 922
10.65 905
10.70 956
10.75 916
10.80 960
10.85 903
10.90 952
10.95 923
11.00 906
11.05 887
11.10 887
11.15 884
11.20 870
11.25 899
11.30 830
11.35 865
11.40 872
11.45 822
11.50 895
11.55 948
11.60 896
11.65 871
11.70 836
11.75 860
11.80 842
11.85 865
11.90 807
11.95 847
12.00 870
12.05 854
12.10 904
12.15 909
12.20 841
12.25 867
12.30 814
12.35 852
12.40 798
12.45 804
12.50 854
12.55 775
12.60 829
12.65 822
12.70 838
12.75 789
12.80 804
12.85 759
12.90 803
12.95 823
13.00 817
13.05 777
13.10 796
13.15 775
13.20 799
13.25 856
13.30 788
13.35 797
13.40 813
13.45 791
13.50 758
13.55 781
13.60 827
13.65 794
13.70 760
13.75 784
13.80 839
13.85 794
13.90 736
13.95 812
14.00 733
14.05 751
14.10 722
14.15 758
14.20 760
14.25 726
14.30 732
14.35 782
14.40 760
14.45 796
14.50 751
14.55 711
14.60 784
14.65 709
14.70 741
14.75 769
14.80 750
14.85 735
14.90 777
14.95 782
15.00 776
15.05 707
15.10 700
15.15 766
15.20 771
15.25 750
15.30 734
15.35 752
15.40 712
15.45 733
15.50 749
15.55 763
15.60 714
15.65 717
15.70 715
15.75 708
15.80 745
15.85 698
15.90 671
15.95 698
16.00 722
16.05 676
16.10 675
16.15 708
16.20 721
16.25 684
16.30 689
16.35 692
16.40 702
16.45 676
16.50 697
16.55 679
16.60 712
16.65 691
16.70 683
16.75 715
16.80 685
16.85 685
16.90 710
16.95 734
17.00 689
17.05 731
17.10 738
17.15 741
17.20 776
17.25 767
17.30 741
17.35 781
17.40 769
17.45 738
17.50 770
17.55 792
17.60 814
17.65 843
17.70 862
17.75 922
17.80 949
17.85 1032
17.90 1000
17.95 1097
18.00 1137
18.05 1152
18.10 1222
18.15 1189
18.20 1180
18.25 1082
18.30 1019
18.35 986
18.40 895
18.45 964
18.50 924
18.55 862
18.60 831
18.65 805
18.70 795
18.75 729
18.80 763
18.85 702
18.90 735
18.95 712
19.00 711
19.05 733
19.10 670
19.15 653
19.20 653
19.25 689
19.30 691
19.35 701
19.40 684
19.45 708
19.50 690
19.55 664
19.60 693
19.65 654
19.70 653
19.75 733
19.80 765
19.85 647
19.90 644
19.95 604
20.00 632
20.05 627
20.10 658
20.15 595
20.20 583
20.25 675
20.30 674
20.35 650
20.40 641
20.45 628
20.50 613
20.55 633
20.60 669
20.65 632
20.70 644
20.75 711
20.80 687
20.85 669
20.90 682
20.95 678
21.00 613
21.05 664
21.10 632
21.15 634
21.20 629
21.25 604
21.30 605
21.35 661
21.40 602
21.45 628
21.50 647
21.55 626
21.60 611
21.65 669
21.70 661
21.75 634
21.80 648
21.85 630
21.90 590
21.95 639
22.00 630
22.05 578
22.10 629
22.15 643
22.20 623
22.25 612
22.30 690
22.35 644
22.40 626
22.45 634
22.50 633
22.55 650
22.60 634
22.65 585
22.70 610
22.75 639
22.80 603
22.85 639
22.90 642
22.95 613
23.00 582
23.05 672
23.10 635
23.15 614
23.20 615
23.25 580
23.30 628
23.35 616
23.40 617
23.45 591
23.50 627
23.55 587
23.60 590
23.65 609
23.70 619
23.75 651
23.80 639
23.85 572
23.90 603
23.95 607
24.00 633
24.05 597
24.10 597
24.15 586
24.20 576
24.25 570
24.30 579
24.35 610
24.40 607
24.45 649
24.50 559
24.55 590
24.60 586
24.65 629
24.70 600
24.75 583
24.80 587
24.85 614
24.90 613
24.95 603
25.00 619
25.05 636
25.10 646
25.15 546
25.20 617
25.25 657
25.30 582
25.35 601
25.40 621
25.45 578
25.50 582
25.55 661
25.60 571
25.65 608
25.70 607
25.75 623
25.80 612
25.85 590
25.90 615
25.95 630
26.00 562
26.05 609
26.10 594
26.15 609
26.20 579
26.25 593
26.30 639
26.35 661
26.40 571
26.45 608
26.50 607
26.55 623
26.60 612
26.65 641
26.70 608
26.75 581
26.80 608
26.85 588
26.90 623
26.95 653
27.00 599
27.05 617
27.10 593
27.15 633
27.20 603
27.25 615
27.30 587
27.35 654
27.40 643
27.45 636
27.50 621
27.55 650
27.60 647
27.65 571
27.70 635
27.75 632
27.80 599
27.85 712
27.90 654
27.95 634
28.00 672
28.05 646
28.10 622
28.15 640
28.20 690
28.25 672
28.30 674
28.35 646
28.40 664
28.45 676
28.50 655
28.55 732
28.60 719
28.65 664
28.70 775
28.75 737
28.80 791
28.85 787
28.90 827
28.95 885
29.00 864
29.05 911
29.10 883
29.15 985
29.20 1071
29.25 1128
29.30 1177
29.35 1246
29.40 1407
29.45 1490
29.50 1618
29.55 1699
29.60 1781
29.65 1887
29.70 1992
29.75 2066
29.80 2050
29.85 2111
29.90 2079
29.95 1949
30.00 1976
30.05 1856
30.10 1667
30.15 1555
30.20 1570
30.25 1375
30.30 1336
30.35 1236
30.40 1230
30.45 1140
30.50 1040
30.55 1025
30.60 1028
30.65 919
30.70 953
30.75 894
30.80 842
30.85 851
30.90 819
30.95 833
31.00 854
31.05 756
31.10 745
31.15 725
31.20 738
31.25 787
31.30 733
31.35 737
31.40 698
31.45 738
31.50 728
31.55 700
31.60 754
31.65 703
31.70 752
31.75 695
31.80 728
31.85 656
31.90 718
31.95 712
32.00 725
32.05 737
32.10 704
32.15 700
32.20 753
32.25 703
32.30 799
32.35 752
32.40 762
32.45 738
32.50 758
32.55 765
32.60 788
32.65 806
32.70 796
32.75 729
32.80 834
32.85 786
32.90 826
32.95 823
33.00 828
33.05 857
33.10 741
33.15 847
33.20 790
33.25 921
33.30 906
33.35 900
33.40 871
33.45 870
33.50 926
33.55 961
33.60 903
33.65 950
33.70 1017
33.75 1025
33.80 1073
33.85 1156
33.90 1106
33.95 1206
34.00 1133
34.05 1252
34.10 1281
34.15 1246
34.20 1440
34.25 1500
34.30 1552
34.35 1685
34.40 1766
34.45 1885
34.50 2000
34.55 2121
34.60 2341
34.65 2404
34.70 2618
34.75 2764
34.80 3069
34.85 3401
34.90 3524
34.95 3755
35.00 3930
35.05 4097
35.10 4235
35.15 4464
35.20 4397
35.25 4438
35.30 4569
35.35 4391
35.40 4127
35.45 4040
35.50 3783
35.55 3656
35.60 3294
35.65 3117
35.70 2932
35.75 2578
35.80 2425
35.85 2356
35.90 2143
35.95 1919
36.00 1917
36.05 1713
36.10 1640
36.15 1543
36.20 1387
36.25 1342
36.30 1290
36.35 1296
36.40 1340
36.45 1218
36.50 1173
36.55 1210
36.60 1157
36.65 1117
36.70 1174
36.75 1066
36.80 1108
36.85 1110
36.90 996
36.95 1055
37.00 1000
37.05 867
37.10 883
37.15 824
37.20 790
37.25 734
37.30 782
37.35 723
37.40 715
37.45 730
37.50 661
37.55 690
37.60 704
37.65 665
37.70 679
37.75 684
37.80 618
37.85 664
37.90 587
37.95 600
38.00 631
38.05 586
38.10 618
38.15 572
38.20 566
38.25 553
38.30 596
38.35 571
38.40 572
38.45 599
38.50 601
38.55 576
38.60 591
38.65 576
38.70 580
38.75 528
38.80 538
38.85 555
38.90 550
38.95 577
39.00 524
39.05 562
39.10 579
39.15 527
39.20 565
39.25 570
39.30 473
39.35 574
39.40 559
39.45 561
39.50 567
39.55 560
39.60 608
39.65 505
39.70 537
39.75 568
39.80 551
39.85 539
39.90 567
39.95 541
40.00 526
40.05 538
40.10 566
40.15 550
40.20 525
40.25 580
40.30 592
40.35 576
40.40 575
40.45 548
40.50 573
40.55 579
40.60 537
40.65 576
40.70 602
40.75 625
40.80 557
40.85 546
40.90 585
40.95 581
41.00 619
41.05 552
41.10 559
41.15 599
41.20 571
41.25 572
41.30 584
41.35 605
41.40 600
41.45 606
41.50 609
41.55 643
41.60 652
41.65 687
41.70 624
41.75 695
41.80 701
41.85 670
41.90 720
41.95 732
42.00 717
42.05 799
42.10 841
42.15 839
42.20 872
42.25 824
42.30 904
42.35 938
42.40 941
42.45 1010
42.50 1057
42.55 1016
42.60 1043
42.65 1063
42.70 1106
42.75 1121
42.80 1131
42.85 1211
42.90 1036
42.95 1079
43.00 1122
43.05 1085
43.10 1039
43.15 1035
43.20 1019
43.25 993
43.30 943
43.35 934
43.40 875
43.45 863
43.50 828
43.55 796
43.60 781
43.65 713
43.70 802
43.75 774
43.80 709
43.85 703
43.90 660
43.95 667
44.00 628
44.05 638
44.10 646
44.15 627
44.20 622
44.25 629
44.30 588
44.35 552
44.40 581
44.45 542
44.50 526
44.55 561
44.60 540
44.65 575
44.70 537
44.75 518
44.80 554
44.85 529
44.90 533
44.95 484
45.00 534
45.05 510
45.10 454
45.15 497
45.20 481
45.25 481
45.30 465
45.35 514
45.40 512
45.45 470
45.50 501
45.55 493
45.60 489
45.65 502
45.70 500
45.75 521
45.80 456
45.85 507
45.90 483
45.95 469
46.00 464
46.05 487
46.10 456
46.15 467
46.20 473
46.25 530
46.30 479
46.35 520
46.40 514
46.45 487
46.50 475
46.55 515
46.60 482
46.65 481
46.70 442
46.75 497
46.80 457
46.85 457
46.90 485
46.95 450
47.00 471
47.05 492
47.10 451
47.15 467
47.20 500
47.25 490
47.30 473
47.35 481
47.40 473
47.45 509
47.50 505
47.55 476
47.60 469
47.65 476
47.70 496
47.75 458
47.80 460
47.85 439
47.90 471
47.95 500
48.00 472
48.05 435
48.10 458
48.15 488
48.20 460
48.25 473
48.30 464
48.35 495
48.40 457
48.45 463
48.50 488
48.55 443
48.60 466
48.65 474
48.70 498
48.75 446
48.80 504
48.85 463
48.90 431
48.95 447
49.00 474
49.05 453
49.10 451
49.15 434
49.20 528
49.25 459
49.30 508
49.35 466
49.40 437
49.45 485
49.50 483
49.55 497
49.60 475
49.65 508
49.70 472
49.75 508
49.80 489
49.85 512
49.90 476
49.95 485
50.00 527
50.05 491
50.10 489
50.15 506
50.20 473
50.25 461
50.30 498
50.35 486
50.40 489
50.45 491
50.50 494
50.55 513
50.60 496
50.65 531
50.70 446
50.75 501
50.80 525
50.85 471
50.90 474
50.95 514
51.00 556
51.05 506
51.10 562
51.15 515
51.20 530
51.25 493
51.30 504
51.35 477
51.40 511
51.45 542
51.50 534
51.55 550
51.60 505
51.65 538
51.70 564
51.75 542
51.80 542
51.85 533
51.90 550
51.95 526
52.00 573
52.05 536
52.10 613
52.15 583
52.20 586
52.25 618
52.30 629
52.35 659
52.40 647
52.45 687
52.50 682
52.55 696
52.60 709
52.65 705
52.70 752
52.75 811
52.80 798
52.85 844
52.90 812
52.95 826
53.00 834
53.05 878
53.10 870
53.15 863
53.20 880
53.25 890
53.30 879
53.35 838
53.40 857
53.45 851
53.50 848
53.55 765
53.60 853
53.65 779
53.70 748
53.75 774
53.80 767
53.85 703
53.90 719
53.95 729
54.00 661
54.05 648
54.10 651
54.15 605
54.20 578
54.25 681
54.30 653
54.35 657
54.40 651
54.45 583
54.50 585
54.55 648
54.60 658
54.65 637
54.70 648
54.75 638
54.80 652
54.85 661
54.90 648
54.95 641
55.00 664
55.05 673
55.10 674
55.15 699
55.20 669
55.25 678
55.30 700
55.35 673
55.40 740
55.45 726
55.50 724
55.55 737
55.60 752
55.65 820
55.70 894
55.75 822
55.80 851
55.85 888
55.90 977
55.95 997
56.00 1028
56.05 1093
56.10 1110
56.15 1172
56.20 1187
56.25 1257
56.30 1359
56.35 1363
56.40 1459
56.45 1464
56.50 1482
56.55 1522
56.60 1490
56.65 1527
56.70 1474
56.75 1528
56.80 1467
56.85 1422
56.90 1386
56.95 1340
57.00 1259
57.05 1327
57.10 1254
57.15 1241
57.20 1145
57.25 1067
57.30 1045
57.35 1060
57.40 1008
57.45 968
57.50 947
57.55 884
57.60 847
57.65 829
57.70 887
57.75 810
57.80 788
57.85 794
57.90 749
57.95 761
58.00 779
58.05 714
58.10 744
58.15 677
58.20 644
58.25 687
58.30 685
58.35 700
58.40 644
58.45 630
58.50 647
58.55 585
58.60 646
58.65 554
58.70 602
58.75 586
58.80 599
58.85 617
58.90 610
58.95 638
59.00 562
59.05 556
59.10 565
59.15 594
59.20 537
59.25 566
59.30 539
59.35 530
59.40 625
59.45 583
59.50 545
59.55 573
59.60 557
59.65 595
59.70 561
59.75 631
59.80 581
59.85 625
59.90 594
59.95 592
60.00 618
60.05 605
60.10 644
60.15 657
60.20 651
60.25 650
60.30 686
60.35 699
60.40 669
60.45 686
60.50 678
60.55 704
60.60 706
60.65 717
60.70 709
60.75 753
60.80 773
60.85 836
60.90 771
60.95 787
61.00 867
61.05 872
61.10 885
61.15 919
61.20 1018
61.25 1078
61.30 1120
61.35 1138
61.40 1197
61.45 1284
61.50 1366
61.55 1396
61.60 1498
61.65 1486
61.70 1665
61.75 1682
61.80 1707
61.85 1794
61.90 1872
61.95 1899
62.00 1953
62.05 1948
62.10 1940
62.15 2039
62.20 1914
62.25 1858
62.30 1771
62.35 1867
62.40 1728
62.45 1722
62.50 1514
62.55 1478
62.60 1470
62.65 1353
62.70 1246
62.75 1225
62.80 1166
62.85 1171
62.90 1085
62.95 1026
63.00 1017
63.05 1004
63.10 979
63.15 887
63.20 884
63.25 866
63.30 862
63.35 792
63.40 740
63.45 779
63.50 758
63.55 711
63.60 690
63.65 732
63.70 715
63.75 682
63.80 655
63.85 634
63.90 677
63.95 652
64.00 571
64.05 615
64.10 644
64.15 650
64.20 637
64.25 666
64.30 590
64.35 614
64.40 600
64.45 604
64.50 580
64.55 596
64.60 585
64.65 545
64.70 531
64.75 558
64.80 541
64.85 524
64.90 545
64.95 533
65.00 509
65.05 562
65.10 526
65.15 493
65.20 531
65.25 513
65.30 492
65.35 500
65.40 509
65.45 565
65.50 499
65.55 502
65.60 510
65.65 477
65.70 580
65.75 461
65.80 519
65.85 482
65.90 479
65.95 480
66.00 507
66.05 469
66.10 512
66.15 467
66.20 511
66.25 440
66.30 484
66.35 466
66.40 474
66.45 468
66.50 496
66.55 476
66.60 480
66.65 497
66.70 445
66.75 459
66.80 459
66.85 467
66.90 460
66.95 475
67.00 512
67.05 483
67.10 470
67.15 415
67.20 444
67.25 463
67.30 464
67.35 462
67.40 449
67.45 471
67.50 488
67.55 465
67.60 469
67.65 446
67.70 435
67.75 461
67.80 465
67.85 451
67.90 475
67.95 447
68.00 487
68.05 480
68.10 468
68.15 484
68.20 449
68.25 485
68.30 391
68.35 437
68.40 479
68.45 468
68.50 477
68.55 443
68.60 485
68.65 447
68.70 474
68.75 463
68.80 493
68.85 460
68.90 472
68.95 477
69.00 435
69.05 428
69.10 472
69.15 445
69.20 458
69.25 459
69.30 476
69.35 496
69.40 478
69.45 485
69.50 459
69.55 504
69.60 484
69.65 490
69.70 488
69.75 504
69.80 531
69.85 493
69.90 484
69.95 488
70.00 499
70.05 506
70.10 516
70.15 561
70.20 521
70.25 531
70.30 571
70.35 513
70.40 534
70.45 549
70.50 565
70.55 528
70.60 529
70.65 562
70.70 560
70.75 496
70.80 573
70.85 529
70.90 550
70.95 562
71.00 541
71.05 502
71.10 496
71.15 535
71.20 528
71.25 573
71.30 484
71.35 492
71.40 523
71.45 473
71.50 537
71.55 544
71.60 495
71.65 522
71.70 517
71.75 522
71.80 549
71.85 531
71.90 521
71.95 550
72.00 496
72.05 523
72.10 494
72.15 515
72.20 527
72.25 510
72.30 526
72.35 518
72.40 568
72.45 595
72.50 552
72.55 517
72.60 553
72.65 550
72.70 570
72.75 574
72.80 643
72.85 650
72.90 619
72.95 656
73.00 692
73.05 677
73.10 690
73.15 668
73.20 699
73.25 707
73.30 739
73.35 735
73.40 702
73.45 720
73.50 747
73.55 766
73.60 749
73.65 789
73.70 770
73.75 795
73.80 777
73.85 732
73.90 723
73.95 747
74.00 705
74.05 717
74.10 710
74.15 718
74.20 726
74.25 676
74.30 688
74.35 679
74.40 643
74.45 614
74.50 615
74.55 576
74.60 585
74.65 591
74.70 623
74.75 570
74.80 554
74.85 585
74.90 530
74.95 543
75.00 573
75.05 562
75.10 563
75.15 522
75.20 497
75.25 515
75.30 524
75.35 497
75.40 519
75.45 531
75.50 458
75.55 498
75.60 512
75.65 487
75.70 480
75.75 485
75.80 465
75.85 473
75.90 487
75.95 465
76.00 451
76.05 463
76.10 453
76.15 449
76.20 435
76.25 457
76.30 423
76.35 421
76.40 444
76.45 427
76.50 465
76.55 430
76.60 467
76.65 472
76.70 414
76.75 469
76.80 442
76.85 459
76.90 429
76.95 424
77.00 412
77.05 414
77.10 431
77.15 453
77.20 455
77.25 431
77.30 476
77.35 440
77.40 450
77.45 440
77.50 439
77.55 489
77.60 457
77.65 444
77.70 434
77.75 478
77.80 517
77.85 459
77.90 487
77.95 499
78.00 476
78.05 487
78.10 468
78.15 489
78.20 493
78.25 515
78.30 498
78.35 536
78.40 528
78.45 483
78.50 511
78.55 531
78.60 512
78.65 517
78.70 475
78.75 526
78.80 450
78.85 499
78.90 469
78.95 474
79.00 451
79.05 426
79.10 443
79.15 438
79.20 484
79.25 451
79.30 467
79.35 478
79.40 424
79.45 441
79.50 414
79.55 433
79.60 437
79.65 410
79.70 450
79.75 440
79.80 419
79.85 459
79.90 416
79.95 435
80.00 442
80.05 446
80.10 423
80.15 403
80.20 427
80.25 457
80.30 419
80.35 462
80.40 452
80.45 417
80.50 449
80.55 480
80.60 465
80.65 437
80.70 456
80.75 417
80.80 391
80.85 443
80.90 460
80.95 418
81.00 450
81.05 425
81.10 437
81.15 426
81.20 419
81.25 418
81.30 447
81.35 424
81.40 453
81.45 441
81.50 430
81.55 415
81.60 437
81.65 468
81.70 415
81.75 462
81.80 459
81.85 401
81.90 442
81.95 429
82.00 440
82.05 453
82.10 472
82.15 478
82.20 425
82.25 451
82.30 437
82.35 420
82.40 459
82.45 409
82.50 430
82.55 462
82.60 447
82.65 459
82.70 459
82.75 410
82.80 421
82.85 452
82.90 421
82.95 424
83.00 453
83.05 439
83.10 452
83.15 450
83.20 412
83.25 430
83.30 450
83.35 505
83.40 449
83.45 438
83.50 460
83.55 464
83.60 418
83.65 390
83.70 465
83.75 433
83.80 422
83.85 425
83.90 415
83.95 447
84.00 435
84.05 426
84.10 431
84.15 429
84.20 475
84.25 450
84.30 470
84.35 464
84.40 441
84.45 493
84.50 463
84.55 406
84.60 487
84.65 477
84.70 478
84.75 422
84.80 437
84.85 466
84.90 456
84.95 455
85.00 459
85.05 427
85.10 505
85.15 439
85.20 514
85.25 456
85.30 501
85.35 493
85.40 465
85.45 473
85.50 505
85.55 503
85.60 507
85.65 530
85.70 540
85.75 585
85.80 542
85.85 553
85.90 525
85.95 542
86.00 553
86.05 559
86.10 571
86.15 533
86.20 556
86.25 561
86.30 620
86.35 507
86.40 523
86.45 579
86.50 570
86.55 557
86.60 577
86.65 559
86.70 534
86.75 531
86.80 584
86.85 544
86.90 550
86.95 558
87.00 564
87.05 554
87.10 564
87.15 568
87.20 552
87.25 535
87.30 536
87.35 557
87.40 536
87.45 527
87.50 544
87.55 560
87.60 522
87.65 526
87.70 548
87.75 577
87.80 550
87.85 534
87.90 575
87.95 599
88.00 550
88.05 613
88.10 659
88.15 583
88.20 688
88.25 689
88.30 673
88.35 654
88.40 679
88.45 702
88.50 748
88.55 691
88.60 768
88.65 763
88.70 767
88.75 774
88.80 745
88.85 735
88.90 745
88.95 802
89.00 794
89.05 750
89.10 793
89.15 818
89.20 731
89.25 749
89.30 733
89.35 731
89.40 724
89.45 692
89.50 734
89.55 731
89.60 665
89.65 692
89.70 704
89.75 728
89.80 650
89.85 618
89.90 603
89.95 657
90.00 581
90.05 586
90.10 596
90.15 626
90.20 561
90.25 574
90.30 583
90.35 535
90.40 506
90.45 550
90.50 548
90.55 573
90.60 581
90.65 549
90.70 490
90.75 551
90.80 530
90.85 510
90.90 516
90.95 510
91.00 513
91.05 533
91.10 518
91.15 468
91.20 487
91.25 486
91.30 505
91.35 535
91.40 450
91.45 510
91.50 533
91.55 539
91.60 528
91.65 533
91.70 521
91.75 465
91.80 521
91.85 502
91.90 498
91.95 522
92.00 531
92.05 532
92.10 486
92.15 494
92.20 490
92.25 516
92.30 509
92.35 527
92.40 526
92.45 496
92.50 517
92.55 543
92.60 539
92.65 511
92.70 533
92.75 569
92.80 525
92.85 561
92.90 531
92.95 519
93.00 559
93.05 515
93.10 541
93.15 545
93.20 592
93.25 604
93.30 536
93.35 585
93.40 567
93.45 594
93.50 590
93.55 619
93.60 595
93.65 635
93.70 586
93.75 638
93.80 577
93.85 575
93.90 605
93.95 580
94.00 593
94.05 666
94.10 665
94.15 578
94.20 616
94.25 633
94.30 616
94.35 620
94.40 596
94.45 605
94.50 623
94.55 579
94.60 580
94.65 605
94.70 602
94.75 549
94.80 574
94.85 553
94.90 584
94.95 544
95.00 557
95.05 534
95.10 547
95.15 586
95.20 500
95.25 570
95.30 542
95.35 540
95.40 567
95.45 556
95.50 496
95.55 539
95.60 511
95.65 549
95.70 561
95.75 546
95.80 550
95.85 501
95.90 555
95.95 480
96.00 505
96.05 491
96.10 530
96.15 519
96.20 481
96.25 516
96.30 484
96.35 515
96.40 502
96.45 483
96.50 481
96.55 463
96.60 453
96.65 478
96.70 431
96.75 483
96.80 478
96.85 471
96.90 444
96.95 496
97.00 466
97.05 480
97.10 460
97.15 478
97.20 438
97.25 440
97.30 441
97.35 436
97.40 431
97.45 445
97.50 465
97.55 450
97.60 452
97.65 446
97.70 421
97.75 412
97.80 453
97.85 459
97.90 408
97.95 432
98.00 433
98.05 409
98.10 438
98.15 433
98.20 443
98.25 449
98.30 404
98.35 442
98.40 470
98.45 504
98.50 475
98.55 441
98.60 420
98.65 424
98.70 443
98.75 421
98.80 421
98.85 442
98.90 449
98.95 418
99.00 430
99.05 431
99.10 401
99.15 446
99.20 409
99.25 407
99.30 434
99.35 419
99.40 411
99.45 445
99.50 453
99.55 462
99.60 466
99.65 416
99.70 453
99.75 448
99.80 447
99.85 422
99.90 452
99.95 428
100.00 441
