32.1   0.0
32.15   0.0
32.2   0.0
32.25   0.0
32.3   0.0
32.35   0.0
32.4   0.0
32.45   0.0
32.5   0.0
32.55   0.0
32.6   0.0538164433781
32.65   0.0580617804668
32.7   0.055160734534
32.75   0.0377116945933
32.8   0.0641618646415
32.85   0.0515621560368
32.9   0.0614225083566
32.95   0.0603080581792
33.0   0.0612354317222
33.05   0.0682882764265
33.1   0.0383330661981
33.15   0.0650384642114
33.2   0.0501417039212
33.25   0.0832278010608
33.3   0.0790506153028
33.35   0.0771704812302
33.4   0.0694201039614
33.45   0.0688161097141
33.5   0.0827601094748
33.55   0.0913443219694
33.6   0.0761923337141
33.65   0.0878392817893
33.7   0.104590789166
33.75   0.106283846604
33.8   0.118186022644
33.85   0.139021177461
33.9   0.125911012926
33.95   0.151085043149
34.0   0.132104635418
34.05   0.162127996977
34.1   0.169180841681
34.15   0.159899096622
34.2   0.20906455556
34.25   0.224029467181
34.3   0.236952555082
34.35   0.270549108151
34.4   0.290873807038
34.45   0.320897168597
34.5   0.349899618296
34.55   0.380433435785
34.6   0.436234821815
34.65   0.451965417331
34.7   0.50623543557
34.75   0.543149952185
34.8   0.620645715244
34.85   0.705032633359
34.9   0.736076906778
34.95   0.794685800423
35.0   0.839001928025
35.05   0.881276231906
35.1   0.916148924801
35.15   0.974247362516
35.2   0.956798322575
35.25   0.96691390286
35.3   1.0
35.35   0.954220655938
35.4   0.886491706882
35.45   0.86393810764
35.5   0.79799575434
35.55   0.765233036496
35.6   0.672491746865
35.65   0.626967630768
35.7   0.579401690951
35.75   0.48870222504
35.8   0.449303580105
35.85   0.431344084234
35.9   0.376631761396
35.95   0.319111930942
36.0   0.318252708729
36.05   0.265837437576
36.1   0.246857029845
36.15   0.221751150953
36.2   0.181586822122
36.25   0.169752797413
36.3   0.156132176948
36.35   0.157314778456
36.4   0.168196042636
36.45   0.136709464617
36.5   0.124875439908
36.55   0.133970108332
36.6   0.120094259902
36.65   0.109536375018
36.7   0.123735602744
36.75   0.0958222162357
36.8   0.106193024486
36.85   0.106354714134
36.9   0.0769099598353
36.95   0.0916196434911
37.0   0.077233339131
37.05   0.0429392534967
37.1   0.0466741346553
37.15   0.031266918435
37.2   0.0222404013409
37.25   0.00759886901574
37.3   0.019501045056
37.35   0.00409382883566
37.4   0.00170323883298
37.45   0.00518289202652
37.5   0.0
37.55   0.0
37.6   0.0
37.65   0.0
37.7   0.0
37.75   0.0
37.8   0.0
37.85   0.0
37.9   0.0
37.95   0.0
38.0   0.0
38.05   0.0
38.1   0.0
38.15   0.0
38.2   0.0
38.25   0.0
38.3   0.0
38.35   0.0
38.4   0.0
38.45   0.0
38.5   0.0
38.55   0.0
38.6   0.0
38.65   0.0
38.7   0.0
38.75   0.0
38.8   0.0
