  20.000     945.00
  20.020     914.00
  20.040     935.00
  20.060     965.00
  20.080     862.00
  20.100     971.00
  20.120     933.00
  20.140     873.00
  20.160     888.00
  20.180     938.00
  20.200     897.00
  20.220     873.00
  20.240     886.00
  20.260     864.00
  20.280     865.00
  20.300     870.00
  20.320     925.00
  20.340     913.00
  20.360     898.00
  20.380     877.00
  20.400     930.00
  20.420     906.00
  20.440     933.00
  20.460     940.00
  20.480     970.00
  20.500     973.00
  20.520     958.00
  20.540     866.00
  20.560     947.00
  20.580     881.00
  20.600     890.00
  20.620     977.00
  20.640     974.00
  20.660     899.00
  20.680     875.00
  20.700     919.00
  20.720     859.00
  20.740     929.00
  20.760     917.00
  20.780     973.00
  20.800     930.00
  20.820     937.00
  20.840     975.00
  20.860     917.00
  20.880     888.00
  20.900     975.00
  20.920     947.00
  20.940     929.00
  20.960     896.00
  20.980     973.00
  21.000     924.00
  21.020     972.00
  21.040     866.00
  21.060     954.00
  21.080     883.00
  21.100     895.00
  21.120     884.00
  21.140     980.00
  21.160     968.00
  21.180     862.00
  21.200     904.00
  21.220     968.00
  21.240     889.00
  21.260     911.00
  21.280     961.00
  21.300     914.00
  21.320     871.00
  21.340     980.00
  21.360     937.00
  21.380     960.00
  21.400     933.00
  21.420     904.00
  21.440     894.00
  21.460     913.00
  21.480     876.00
  21.500     978.00
  21.520     911.00
  21.540     919.00
  21.560     963.00
  21.580     928.00
  21.600     878.00
  21.620     915.00
  21.640     873.00
  21.660     908.00
  21.680     984.00
  21.700     885.00
  21.720     948.00
  21.740     870.00
  21.760     903.00
  21.780     943.00
  21.800     975.00
  21.820     970.00
  21.840     906.00
  21.860     911.00
  21.880     841.00
  21.900     896.00
  21.920     897.00
  21.940     866.00
  21.960     959.00
  21.980     892.00
  22.000     935.00
  22.020     943.00
  22.040     922.00
  22.060     844.00
  22.080     967.00
  22.100     900.00
  22.120     951.00
  22.140     929.00
  22.160     869.00
  22.180     914.00
  22.200     938.00
  22.220     886.00
  22.240     864.00
  22.260     999.00
  22.280     930.00
  22.300     947.00
  22.320     930.00
  22.340     927.00
  22.360     968.00
  22.380     941.00
  22.400     946.00
  22.420     968.00
  22.440    1011.00
  22.460     900.00
  22.480     891.00
  22.500     940.00
  22.520     914.00
  22.540     907.00
  22.560     972.00
  22.580     890.00
  22.600     954.00
  22.620     978.00
  22.640     880.00
  22.660     930.00
  22.680     934.00
  22.700     946.00
  22.720     950.00
  22.740    1012.00
  22.760     932.00
  22.780     922.00
  22.800     926.00
  22.820     955.00
  22.840     924.00
  22.860     960.00
  22.880     924.00
  22.900     925.00
  22.920     936.00
  22.940     897.00
  22.960     988.00
  22.980     934.00
  23.000     932.00
  23.020     908.00
  23.040     920.00
  23.060     934.00
  23.080     968.00
  23.100     955.00
  23.120     905.00
  23.140     920.00
  23.160     889.00
  23.180     889.00
  23.200     973.00
  23.220     946.00
  23.240     985.00
  23.260     916.00
  23.280     858.00
  23.300     922.00
  23.320     913.00
  23.340     941.00
  23.360     972.00
  23.380     914.00
  23.400     923.00
  23.420     963.00
  23.440     924.00
  23.460     937.00
  23.480    1032.00
  23.500     930.00
  23.520     937.00
  23.540     928.00
  23.560     966.00
  23.580     881.00
  23.600     893.00
  23.620     959.00
  23.640     935.00
  23.660     907.00
  23.680     958.00
  23.700    1020.00
  23.720     913.00
  23.740     957.00
  23.760     933.00
  23.780     941.00
  23.800    1000.00
  23.820     955.00
  23.840     872.00
  23.860     923.00
  23.880     906.00
  23.900     950.00
  23.920     980.00
  23.940     939.00
  23.960     937.00
  23.980     986.00
  24.000     930.00
  24.020     908.00
  24.040     956.00
  24.060     989.00
  24.080     978.00
  24.100     948.00
  24.120     931.00
  24.140     948.00
  24.160     926.00
  24.180     921.00
  24.200     923.00
  24.220     935.00
  24.240     866.00
  24.260     917.00
  24.280     946.00
  24.300     931.00
  24.320     942.00
  24.340     963.00
  24.360     952.00
  24.380     925.00
  24.400     996.00
  24.420     962.00
  24.440     935.00
  24.460     960.00
  24.480     937.00
  24.500     959.00
  24.520     910.00
  24.540     948.00
  24.560     944.00
  24.580     930.00
  24.600     954.00
  24.620     980.00
  24.640     976.00
  24.660     957.00
  24.680     943.00
  24.700     921.00
  24.720     961.00
  24.740     983.00
  24.760     985.00
  24.780     948.00
  24.800     905.00
  24.820     946.00
  24.840     978.00
  24.860     951.00
  24.880     916.00
  24.900     992.00
  24.920     907.00
  24.940     987.00
  24.960     994.00
  24.980    1001.00
  25.000     989.00
  25.020     989.00
  25.040     957.00
  25.060     988.00
  25.080     979.00
  25.100     944.00
  25.120     973.00
  25.140     984.00
  25.160     893.00
  25.180     864.00
  25.200     966.00
  25.220     981.00
  25.240     946.00
  25.260     949.00
  25.280    1001.00
  25.300     947.00
  25.320     941.00
  25.340     991.00
  25.360     980.00
  25.380     991.00
  25.400     985.00
  25.420     890.00
  25.440     966.00
  25.460     930.00
  25.480     973.00
  25.500     951.00
  25.520     945.00
  25.540     965.00
  25.560     998.00
  25.580     894.00
  25.600    1037.00
  25.620     985.00
  25.640     962.00
  25.660     934.00
  25.680     977.00
  25.700    1003.00
  25.720     953.00
  25.740     937.00
  25.760     989.00
  25.780     927.00
  25.800    1007.00
  25.820     967.00
  25.840     960.00
  25.860     962.00
  25.880     933.00
  25.900     988.00
  25.920     961.00
  25.940     934.00
  25.960     976.00
  25.980     940.00
  26.000     995.00
  26.020     923.00
  26.040    1004.00
  26.060     973.00
  26.080    1021.00
  26.100     998.00
  26.120     918.00
  26.140     911.00
  26.160     976.00
  26.180    1051.00
  26.200     945.00
  26.220     967.00
  26.240     959.00
  26.260     958.00
  26.280     950.00
  26.300     979.00
  26.320    1028.00
  26.340     988.00
  26.360    1005.00
  26.380     952.00
  26.400     936.00
  26.420     959.00
  26.440    1013.00
  26.460    1007.00
  26.480     980.00
  26.500     962.00
  26.520     997.00
  26.540    1024.00
  26.560     928.00
  26.580    1026.00
  26.600     954.00
  26.620     969.00
  26.640    1004.00
  26.660     991.00
  26.680    1009.00
  26.700    1025.00
  26.720     991.00
  26.740    1028.00
  26.760     969.00
  26.780     975.00
  26.800     983.00
  26.820    1018.00
  26.840     997.00
  26.860    1076.00
  26.880    1041.00
  26.900     974.00
  26.920    1016.00
  26.940    1009.00
  26.960     997.00
  26.980    1011.00
  27.000    1048.00
  27.020    1028.00
  27.040    1013.00
  27.060    1060.00
  27.080     981.00
  27.100    1021.00
  27.120    1036.00
  27.140    1014.00
  27.160    1067.00
  27.180    1039.00
  27.200    1036.00
  27.220    1013.00
  27.240    1025.00
  27.260    1011.00
  27.280    1045.00
  27.300    1006.00
  27.320    1038.00
  27.340    1052.00
  27.360    1026.00
  27.380    1022.00
  27.400    1069.00
  27.420    1012.00
  27.440     995.00
  27.460    1084.00
  27.480    1054.00
  27.500    1107.00
  27.520    1046.00
  27.540    1138.00
  27.560    1072.00
  27.580    1106.00
  27.600    1035.00
  27.620    1111.00
  27.640    1109.00
  27.660    1093.00
  27.680    1108.00
  27.700    1071.00
  27.720    1119.00
  27.740    1099.00
  27.760    1145.00
  27.780    1147.00
  27.800    1175.00
  27.820    1250.00
  27.840    1200.00
  27.860    1180.00
  27.880    1211.00
  27.900    1223.00
  27.920    1305.00
  27.940    1251.00
  27.960    1225.00
  27.980    1238.00
  28.000    1358.00
  28.020    1317.00
  28.040    1398.00
  28.060    1355.00
  28.080    1453.00
  28.100    1474.00
  28.120    1454.00
  28.140    1446.00
  28.160    1565.00
  28.180    1640.00
  28.200    1691.00
  28.220    1718.00
  28.240    1882.00
  28.260    1970.00
  28.280    2172.00
  28.300    2161.00
  28.320    2408.00
  28.340    2649.00
  28.360    2846.00
  28.380    3229.00
  28.400    3619.00
  28.420    4018.00
  28.440    4498.00
  28.460    5349.00
  28.480    6037.00
  28.500    6774.00
  28.520    7869.00
  28.540    8928.00
  28.560    9800.00
  28.580   10721.00
  28.600   11612.00
  28.620   12317.00
  28.640   12876.00
  28.660   13020.00
  28.680   13157.00
  28.700   12718.00
  28.720   11919.00
  28.740   11156.00
  28.760   10282.00
  28.780    9259.00
  28.800    8247.00
  28.820    7290.00
  28.840    6407.00
  28.860    5552.00
  28.880    5050.00
  28.900    4429.00
  28.920    3945.00
  28.940    3414.00
  28.960    3063.00
  28.980    2758.00
  29.000    2523.00
  29.020    2322.00
  29.040    2168.00
  29.060    2035.00
  29.080    1967.00
  29.100    1698.00
  29.120    1655.00
  29.140    1691.00
  29.160    1533.00
  29.180    1529.00
  29.200    1466.00
  29.220    1419.00
  29.240    1423.00
  29.260    1427.00
  29.280    1389.00
  29.300    1346.00
  29.320    1295.00
  29.340    1273.00
  29.360    1316.00
  29.380    1215.00
  29.400    1261.00
  29.420    1224.00
  29.440    1211.00
  29.460    1177.00
  29.480    1202.00
  29.500    1208.00
  29.520    1174.00
  29.540    1137.00
  29.560    1126.00
  29.580    1136.00
  29.600    1155.00
  29.620    1131.00
  29.640    1102.00
  29.660    1124.00
  29.680    1138.00
  29.700    1098.00
  29.720    1090.00
  29.740    1109.00
  29.760    1105.00
  29.780    1066.00
  29.800    1069.00
  29.820    1084.00
  29.840    1092.00
  29.860    1046.00
  29.880    1037.00
  29.900    1048.00
  29.920    1093.00
  29.940    1048.00
  29.960    1017.00
  29.980    1034.00
  30.000    1069.00
  30.020    1105.00
  30.040    1129.00
  30.060    1022.00
  30.080    1079.00
  30.100    1029.00
  30.120    1030.00
  30.140    1004.00
  30.160    1012.00
  30.180     992.00
  30.200    1018.00
  30.220    1004.00
  30.240    1032.00
  30.260     998.00
  30.280     982.00
  30.300    1001.00
  30.320    1050.00
  30.340     992.00
  30.360    1045.00
  30.380     994.00
  30.400     995.00
  30.420     935.00
  30.440     945.00
  30.460     952.00
  30.480     982.00
  30.500    1033.00
  30.520    1011.00
  30.540    1014.00
  30.560     971.00
  30.580     964.00
  30.600    1028.00
  30.620    1014.00
  30.640    1015.00
  30.660     993.00
  30.680    1005.00
  30.700     973.00
  30.720     980.00
  30.740     947.00
  30.760    1041.00
  30.780     983.00
  30.800     954.00
  30.820    1041.00
  30.840     999.00
  30.860     984.00
  30.880     968.00
  30.900    1023.00
  30.920     976.00
  30.940    1004.00
  30.960     978.00
  30.980    1008.00
  31.000    1032.00
  31.020     981.00
  31.040     972.00
  31.060     999.00
  31.080    1014.00
  31.100    1012.00
  31.120    1086.00
  31.140    1050.00
  31.160     987.00
  31.180    1037.00
  31.200    1044.00
  31.220     993.00
  31.240    1050.00
  31.260    1056.00
  31.280    1041.00
  31.300     971.00
  31.320    1033.00
  31.340     982.00
  31.360    1048.00
  31.380    1051.00
  31.400    1047.00
  31.420    1011.00
  31.440    1054.00
  31.460     975.00
  31.480    1058.00
  31.500     952.00
  31.520    1113.00
  31.540    1059.00
  31.560     968.00
  31.580    1068.00
  31.600     994.00
  31.620    1026.00
  31.640    1014.00
  31.660    1129.00
  31.680    1024.00
  31.700    1009.00
  31.720    1016.00
  31.740    1023.00
  31.760    1046.00
  31.780    1072.00
  31.800    1033.00
  31.820    1012.00
  31.840    1031.00
  31.860    1086.00
  31.880    1052.00
  31.900    1009.00
  31.920    1120.00
  31.940    1085.00
  31.960    1055.00
  31.980    1031.00
  32.000    1015.00
  32.020    1005.00
  32.040     997.00
  32.060    1060.00
  32.080    1046.00
  32.100    1027.00
  32.120    1047.00
  32.140    1033.00
  32.160    1109.00
  32.180    1101.00
  32.200    1043.00
  32.220    1041.00
  32.240    1053.00
  32.260    1070.00
  32.280    1081.00
  32.300     997.00
  32.320    1066.00
  32.340    1055.00
  32.360    1090.00
  32.380    1094.00
  32.400    1122.00
  32.420    1048.00
  32.440    1084.00
  32.460    1072.00
  32.480    1152.00
  32.500    1107.00
  32.520    1122.00
  32.540    1133.00
  32.560    1161.00
  32.580    1168.00
  32.600    1185.00
  32.620    1186.00
  32.640    1119.00
  32.660    1195.00
  32.680    1160.00
  32.700    1159.00
  32.720    1199.00
  32.740    1265.00
  32.760    1337.00
  32.780    1354.00
  32.800    1406.00
  32.820    1451.00
  32.840    1430.00
  32.860    1472.00
  32.880    1524.00
  32.900    1585.00
  32.920    1740.00
  32.940    1865.00
  32.960    1945.00
  32.980    2125.00
  33.000    2281.00
  33.020    2572.00
  33.040    2717.00
  33.060    2948.00
  33.080    3281.00
  33.100    3519.00
  33.120    3874.00
  33.140    4050.00
  33.160    4325.00
  33.180    4483.00
  33.200    4612.00
  33.220    4338.00
  33.240    4254.00
  33.260    4060.00
  33.280    3823.00
  33.300    3635.00
  33.320    3377.00
  33.340    3062.00
  33.360    2879.00
  33.380    2484.00
  33.400    2385.00
  33.420    2157.00
  33.440    1968.00
  33.460    1853.00
  33.480    1788.00
  33.500    1656.00
  33.520    1582.00
  33.540    1478.00
  33.560    1423.00
  33.580    1349.00
  33.600    1359.00
  33.620    1290.00
  33.640    1309.00
  33.660    1259.00
  33.680    1178.00
  33.700    1142.00
  33.720    1171.00
  33.740    1171.00
  33.760    1186.00
  33.780    1120.00
  33.800    1162.00
  33.820    1156.00
  33.840    1138.00
  33.860    1071.00
  33.880    1128.00
  33.900    1099.00
  33.920    1061.00
  33.940    1077.00
  33.960    1083.00
  33.980    1071.00
  34.000    1093.00
  34.020    1045.00
  34.040    1070.00
  34.060    1092.00
  34.080    1047.00
  34.100    1061.00
  34.120    1039.00
  34.140    1024.00
  34.160    1120.00
  34.180    1125.00
  34.200    1045.00
  34.220    1177.00
  34.240    1134.00
  34.260     994.00
  34.280    1080.00
  34.300    1066.00
  34.320    1103.00
  34.340    1008.00
  34.360     990.00
  34.380    1041.00
  34.400     981.00
  34.420    1080.00
  34.440    1065.00
  34.460     993.00
  34.480    1006.00
  34.500    1092.00
  34.520    1096.00
  34.540    1065.00
  34.560     992.00
  34.580     971.00
  34.600    1001.00
  34.620     982.00
  34.640    1061.00
  34.660    1003.00
  34.680    1054.00
  34.700     993.00
  34.720     974.00
  34.740     996.00
  34.760    1097.00
  34.780    1088.00
  34.800     991.00
  34.820    1079.00
  34.840    1016.00
  34.860    1029.00
  34.880     996.00
  34.900    1053.00
  34.920    1084.00
  34.940    1089.00
  34.960    1068.00
  34.980     969.00
  35.000     977.00
  35.020    1022.00
  35.040    1065.00
  35.060     970.00
  35.080    1056.00
  35.100     996.00
  35.120    1014.00
  35.140     996.00
  35.160     999.00
  35.180    1006.00
  35.200     976.00
  35.220    1054.00
  35.240    1073.00
  35.260     972.00
  35.280     966.00
  35.300    1021.00
  35.320    1079.00
  35.340    1022.00
  35.360    1061.00
  35.380     981.00
  35.400    1042.00
  35.420     999.00
  35.440    1037.00
  35.460     971.00
  35.480    1050.00
  35.500    1016.00
  35.520    1051.00
  35.540    1043.00
  35.560    1081.00
  35.580    1027.00
  35.600    1090.00
  35.620    1079.00
  35.640    1027.00
  35.660    1078.00
  35.680    1020.00
  35.700    1013.00
  35.720     996.00
  35.740    1032.00
  35.760    1054.00
  35.780    1002.00
  35.800     985.00
  35.820    1039.00
  35.840    1052.00
  35.860    1013.00
  35.880    1028.00
  35.900    1007.00
  35.920    1000.00
  35.940    1012.00
  35.960    1092.00
  35.980    1029.00
  36.000    1049.00
  36.020     984.00
  36.040     997.00
  36.060     976.00
  36.080    1090.00
  36.100    1069.00
  36.120    1038.00
  36.140    1046.00
  36.160     982.00
  36.180    1024.00
  36.200    1054.00
  36.220    1067.00
  36.240    1091.00
  36.260    1012.00
  36.280    1009.00
  36.300    1035.00
  36.320    1046.00
  36.340    1036.00
  36.360     994.00
  36.380     991.00
  36.400    1066.00
  36.420    1080.00
  36.440     997.00
  36.460    1014.00
  36.480    1089.00
  36.500    1029.00
  36.520     968.00
  36.540    1012.00
  36.560    1005.00
  36.580    1008.00
  36.600     986.00
  36.620     977.00
  36.640    1028.00
  36.660    1087.00
  36.680    1014.00
  36.700     989.00
  36.720    1082.00
  36.740    1044.00
  36.760     980.00
  36.780    1073.00
  36.800     970.00
  36.820    1093.00
  36.840    1051.00
  36.860    1020.00
  36.880     988.00
  36.900    1084.00
  36.920    1049.00
  36.940    1067.00
  36.960     976.00
  36.980    1033.00
  37.000     981.00
  37.020     971.00
  37.040     983.00
  37.060    1031.00
  37.080    1005.00
  37.100    1049.00
  37.120     984.00
  37.140    1081.00
  37.160    1032.00
  37.180    1098.00
  37.200    1082.00
  37.220    1041.00
  37.240    1014.00
  37.260    1024.00
  37.280    1008.00
  37.300    1063.00
  37.320    1092.00
  37.340    1065.00
  37.360    1075.00
  37.380    1097.00
  37.400    1029.00
  37.420    1092.00
  37.440    1010.00
  37.460    1013.00
  37.480    1078.00
  37.500    1084.00
  37.520    1013.00
  37.540    1063.00
  37.560    1079.00
  37.580    1080.00
  37.600    1032.00
  37.620     982.00
  37.640    1063.00
  37.660    1002.00
  37.680    1076.00
  37.700     992.00
  37.720    1072.00
  37.740    1061.00
  37.760    1040.00
  37.780    1062.00
  37.800    1093.00
  37.820    1098.00
  37.840    1097.00
  37.860    1093.00
  37.880    1021.00
  37.900    1016.00
  37.920    1101.00
  37.940    1011.00
  37.960    1065.00
  37.980    1097.00
  38.000     996.00
  38.020    1054.00
  38.040    1028.00
  38.060    1041.00
  38.080    1010.00
  38.100     992.00
  38.120     979.00
  38.140    1072.00
  38.160    1042.00
  38.180    1027.00
  38.200    1030.00
  38.220    1100.00
  38.240    1025.00
  38.260     988.00
  38.280    1000.00
  38.300    1022.00
  38.320    1091.00
  38.340    1020.00
  38.360    1070.00
  38.380    1006.00
  38.400    1053.00
  38.420    1058.00
  38.440     985.00
  38.460    1049.00
  38.480    1053.00
  38.500    1069.00
  38.520    1106.00
  38.540    1027.00
  38.560    1098.00
  38.580    1007.00
  38.600    1029.00
  38.620     983.00
  38.640     986.00
  38.660    1005.00
  38.680    1061.00
  38.700    1092.00
  38.720    1072.00
  38.740    1055.00
  38.760     992.00
  38.780    1072.00
  38.800    1067.00
  38.820    1020.00
  38.840    1020.00
  38.860    1075.00
  38.880    1090.00
  38.900     997.00
  38.920    1013.00
  38.940    1080.00
  38.960    1025.00
  38.980    1005.00
  39.000    1089.00
  39.020    1014.00
  39.040    1036.00
  39.060    1042.00
  39.080     991.00
  39.100    1002.00
  39.120    1067.00
  39.140    1030.00
  39.160    1094.00
  39.180    1061.00
  39.200     994.00
  39.220    1041.00
  39.240     995.00
  39.260    1098.00
  39.280    1101.00
  39.300    1075.00
  39.320    1027.00
  39.340    1065.00
  39.360    1099.00
  39.380    1001.00
  39.400    1025.00
  39.420    1030.00
  39.440    1093.00
  39.460    1038.00
  39.480    1033.00
  39.500    1030.00
  39.520    1020.00
  39.540    1097.00
  39.560    1038.00
  39.580     989.00
  39.600     999.00
  39.620    1001.00
  39.640     986.00
  39.660    1042.00
  39.680    1088.00
  39.700    1076.00
  39.720    1038.00
  39.740    1069.00
  39.760    1057.00
  39.780    1064.00
  39.800    1054.00
  39.820    1029.00
  39.840    1059.00
  39.860     995.00
  39.880    1030.00
  39.900    1105.00
  39.920    1061.00
  39.940     990.00
  39.960    1021.00
  39.980    1034.00
  40.000    1098.00
  40.020    1068.00
  40.040    1113.00
  40.060    1000.00
  40.080    1046.00
  40.100    1107.00
  40.120     991.00
  40.140    1001.00
  40.160     987.00
  40.180    1114.00
  40.200    1063.00
  40.220    1060.00
  40.240    1053.00
  40.260     992.00
  40.280    1032.00
  40.300    1068.00
  40.320     995.00
  40.340    1064.00
  40.360    1087.00
  40.380    1077.00
  40.400    1062.00
  40.420    1069.00
  40.440    1037.00
  40.460    1038.00
  40.480    1104.00
  40.500    1015.00
  40.520    1082.00
  40.540    1044.00
  40.560    1011.00
  40.580    1112.00
  40.600    1071.00
  40.620    1034.00
  40.640     994.00
  40.660    1061.00
  40.680    1008.00
  40.700     998.00
  40.720    1107.00
  40.740    1003.00
  40.760     992.00
  40.780    1024.00
  40.800    1035.00
  40.820    1118.00
  40.840    1024.00
  40.860    1073.00
  40.880    1028.00
  40.900    1063.00
  40.920    1027.00
  40.940    1037.00
  40.960     996.00
  40.980    1002.00
  41.000    1082.00
  41.020    1029.00
  41.040    1090.00
  41.060    1049.00
  41.080    1012.00
  41.100     999.00
  41.120    1002.00
  41.140    1037.00
  41.160    1043.00
  41.180    1088.00
  41.200     978.00
  41.220    1067.00
  41.240    1035.00
  41.260    1106.00
  41.280    1040.00
  41.300    1077.00
  41.320    1059.00
  41.340     996.00
  41.360    1004.00
  41.380    1030.00
  41.400    1131.00
  41.420    1035.00
  41.440    1012.00
  41.460    1069.00
  41.480    1111.00
  41.500    1056.00
  41.520    1066.00
  41.540    1047.00
  41.560    1036.00
  41.580    1028.00
  41.600    1136.00
  41.620    1003.00
  41.640    1005.00
  41.660    1053.00
  41.680    1060.00
  41.700    1094.00
  41.720    1078.00
  41.740    1021.00
  41.760    1054.00
  41.780    1071.00
  41.800    1021.00
  41.820    1140.00
  41.840    1048.00
  41.860    1091.00
  41.880    1054.00
  41.900    1065.00
  41.920    1100.00
  41.940    1028.00
  41.960    1023.00
  41.980    1136.00
  42.000    1021.00
  42.020    1074.00
  42.040    1066.00
  42.060    1021.00
  42.080     986.00
  42.100     995.00
  42.120    1032.00
  42.140    1049.00
  42.160    1107.00
  42.180    1026.00
  42.200    1081.00
  42.220    1086.00
  42.240    1026.00
  42.260    1083.00
  42.280    1059.00
  42.300    1068.00
  42.320    1083.00
  42.340    1026.00
  42.360    1042.00
  42.380    1066.00
  42.400    1059.00
  42.420    1101.00
  42.440    1081.00
  42.460    1063.00
  42.480    1096.00
  42.500    1090.00
  42.520    1093.00
  42.540    1066.00
  42.560    1112.00
  42.580    1054.00
  42.600    1040.00
  42.620    1081.00
  42.640    1091.00
  42.660    1059.00
  42.680    1011.00
  42.700    1093.00
  42.720    1058.00
  42.740    1030.00
  42.760    1073.00
  42.780    1052.00
  42.800    1122.00
  42.820    1088.00
  42.840    1087.00
  42.860    1082.00
  42.880    1082.00
  42.900    1052.00
  42.920    1048.00
  42.940    1127.00
  42.960    1043.00
  42.980    1074.00
  43.000    1122.00
  43.020    1071.00
  43.040    1102.00
  43.060    1077.00
  43.080    1057.00
  43.100    1031.00
  43.120    1044.00
  43.140    1108.00
  43.160    1067.00
  43.180    1095.00
  43.200    1060.00
  43.220    1066.00
  43.240    1087.00
  43.260    1108.00
  43.280    1078.00
  43.300    1095.00
  43.320    1044.00
  43.340    1000.00
  43.360    1150.00
  43.380    1073.00
  43.400    1092.00
  43.420    1133.00
  43.440    1109.00
  43.460    1033.00
  43.480    1052.00
  43.500    1080.00
  43.520    1126.00
  43.540    1146.00
  43.560    1057.00
  43.580    1096.00
  43.600    1167.00
  43.620    1079.00
  43.640    1171.00
  43.660    1051.00
  43.680    1082.00
  43.700    1065.00
  43.720    1058.00
  43.740    1092.00
  43.760    1051.00
  43.780    1120.00
  43.800    1154.00
  43.820    1119.00
  43.840    1072.00
  43.860    1075.00
  43.880    1116.00
  43.900    1063.00
  43.920    1073.00
  43.940    1111.00
  43.960    1146.00
  43.980    1137.00
  44.000    1118.00
  44.020    1056.00
  44.040    1053.00
  44.060    1127.00
  44.080    1056.00
  44.100    1095.00
  44.120    1148.00
  44.140    1050.00
  44.160    1111.00
  44.180    1095.00
  44.200    1088.00
  44.220    1122.00
  44.240    1121.00
  44.260    1117.00
  44.280    1134.00
  44.300    1030.00
  44.320    1108.00
  44.340    1162.00
  44.360    1085.00
  44.380    1089.00
  44.400    1144.00
  44.420    1147.00
  44.440    1161.00
  44.460    1186.00
  44.480    1114.00
  44.500    1108.00
  44.520    1115.00
  44.540    1121.00
  44.560    1142.00
  44.580    1120.00
  44.600    1152.00
  44.620    1105.00
  44.640    1122.00
  44.660    1136.00
  44.680    1105.00
  44.700    1131.00
  44.720    1160.00
  44.740    1105.00
  44.760    1108.00
  44.780    1109.00
  44.800    1136.00
  44.820    1080.00
  44.840    1074.00
  44.860    1129.00
  44.880    1137.00
  44.900    1103.00
  44.920    1124.00
  44.940    1155.00
  44.960    1038.00
  44.980    1083.00
  45.000    1141.00
  45.020    1134.00
  45.040    1153.00
  45.060    1094.00
  45.080    1132.00
  45.100    1114.00
  45.120    1097.00
  45.140    1082.00
  45.160    1114.00
  45.180    1124.00
  45.200    1093.00
  45.220    1137.00
  45.240    1091.00
  45.260    1182.00
  45.280    1117.00
  45.300    1168.00
  45.320    1164.00
  45.340    1169.00
  45.360    1109.00
  45.380    1052.00
  45.400    1197.00
  45.420    1125.00
  45.440    1125.00
  45.460    1146.00
  45.480    1113.00
  45.500    1083.00
  45.520    1127.00
  45.540    1128.00
  45.560    1165.00
  45.580    1152.00
  45.600    1139.00
  45.620    1103.00
  45.640    1161.00
  45.660    1116.00
  45.680    1142.00
  45.700    1160.00
  45.720    1209.00
  45.740    1193.00
  45.760    1180.00
  45.780    1158.00
  45.800    1174.00
  45.820    1148.00
  45.840    1225.00
  45.860    1191.00
  45.880    1108.00
  45.900    1095.00
  45.920    1163.00
  45.940    1143.00
  45.960    1151.00
  45.980    1171.00
  46.000    1154.00
  46.020    1214.00
  46.040    1219.00
  46.060    1196.00
  46.080    1166.00
  46.100    1243.00
  46.120    1129.00
  46.140    1185.00
  46.160    1177.00
  46.180    1151.00
  46.200    1144.00
  46.220    1124.00
  46.240    1168.00
  46.260    1272.00
  46.280    1230.00
  46.300    1153.00
  46.320    1218.00
  46.340    1163.00
  46.360    1221.00
  46.380    1203.00
  46.400    1261.00
  46.420    1159.00
  46.440    1169.00
  46.460    1114.00
  46.480    1165.00
  46.500    1145.00
  46.520    1216.00
  46.540    1175.00
  46.560    1290.00
  46.580    1220.00
  46.600    1173.00
  46.620    1229.00
  46.640    1183.00
  46.660    1232.00
  46.680    1267.00
  46.700    1274.00
  46.720    1284.00
  46.740    1352.00
  46.760    1249.00
  46.780    1295.00
  46.800    1282.00
  46.820    1335.00
  46.840    1334.00
  46.860    1342.00
  46.880    1370.00
  46.900    1328.00
  46.920    1377.00
  46.940    1448.00
  46.960    1397.00
  46.980    1385.00
  47.000    1456.00
  47.020    1414.00
  47.040    1483.00
  47.060    1479.00
  47.080    1536.00
  47.100    1654.00
  47.120    1678.00
  47.140    1654.00
  47.160    1711.00
  47.180    1817.00
  47.200    1874.00
  47.220    2024.00
  47.240    2131.00
  47.260    2354.00
  47.280    2513.00
  47.300    2670.00
  47.320    2956.00
  47.340    3219.00
  47.360    3539.00
  47.380    3970.00
  47.400    4512.00
  47.420    4896.00
  47.440    5592.00
  47.460    6131.00
  47.480    6874.00
  47.500    7416.00
  47.520    8047.00
  47.540    8666.00
  47.560    9261.00
  47.580    9491.00
  47.600    9544.00
  47.620    9472.00
  47.640    9079.00
  47.660    8823.00
  47.680    8064.00
  47.700    7711.00
  47.720    6867.00
  47.740    6119.00
  47.760    5662.00
  47.780    4990.00
  47.800    4640.00
  47.820    4003.00
  47.840    3717.00
  47.860    3389.00
  47.880    2983.00
  47.900    2737.00
  47.920    2497.00
  47.940    2456.00
  47.960    2218.00
  47.980    2094.00
  48.000    1989.00
  48.020    1892.00
  48.040    1718.00
  48.060    1706.00
  48.080    1633.00
  48.100    1604.00
  48.120    1605.00
  48.140    1532.00
  48.160    1512.00
  48.180    1464.00
  48.200    1425.00
  48.220    1400.00
  48.240    1419.00
  48.260    1435.00
  48.280    1374.00
  48.300    1355.00
  48.320    1361.00
  48.340    1355.00
  48.360    1317.00
  48.380    1349.00
  48.400    1344.00
  48.420    1313.00
  48.440    1294.00
  48.460    1330.00
  48.480    1255.00
  48.500    1343.00
  48.520    1201.00
  48.540    1278.00
  48.560    1299.00
  48.580    1222.00
  48.600    1278.00
  48.620    1239.00
  48.640    1268.00
  48.660    1264.00
  48.680    1230.00
  48.700    1190.00
  48.720    1190.00
  48.740    1202.00
  48.760    1262.00
  48.780    1248.00
  48.800    1239.00
  48.820    1214.00
  48.840    1326.00
  48.860    1217.00
  48.880    1224.00
  48.900    1205.00
  48.920    1218.00
  48.940    1149.00
  48.960    1196.00
  48.980    1220.00
  49.000    1235.00
  49.020    1164.00
  49.040    1218.00
  49.060    1227.00
  49.080    1173.00
  49.100    1239.00
  49.120    1230.00
  49.140    1177.00
  49.160    1207.00
  49.180    1210.00
  49.200    1200.00
  49.220    1248.00
  49.240    1166.00
  49.260    1169.00
  49.280    1242.00
  49.300    1191.00
  49.320    1225.00
  49.340    1186.00
  49.360    1266.00
  49.380    1213.00
  49.400    1192.00
  49.420    1199.00
  49.440    1110.00
  49.460    1144.00
  49.480    1234.00
  49.500    1187.00
  49.520    1226.00
  49.540    1228.00
  49.560    1142.00
  49.580    1230.00
  49.600    1213.00
  49.620    1226.00
  49.640    1189.00
  49.660    1181.00
  49.680    1224.00
  49.700    1152.00
  49.720    1122.00
  49.740    1185.00
  49.760    1242.00
  49.780    1178.00
  49.800    1174.00
  49.820    1230.00
  49.840    1193.00
  49.860    1204.00
  49.880    1213.00
  49.900    1262.00
  49.920    1228.00
  49.940    1165.00
  49.960    1188.00
  49.980    1170.00
  50.000    1189.00
  50.020    1209.00
  50.040    1126.00
  50.060    1170.00
  50.080    1143.00
  50.100    1210.00
  50.120    1180.00
  50.140    1188.00
  50.160    1160.00
  50.180    1176.00
  50.200    1181.00
  50.220    1204.00
  50.240    1213.00
  50.260    1191.00
  50.280    1206.00
  50.300    1141.00
  50.320    1187.00
  50.340    1213.00
  50.360    1192.00
  50.380    1197.00
  50.400    1107.00
  50.420    1196.00
  50.440    1233.00
  50.460    1203.00
  50.480    1188.00
  50.500    1151.00
  50.520    1248.00
  50.540    1150.00
  50.560    1154.00
  50.580    1125.00
  50.600    1166.00
  50.620    1156.00
  50.640    1220.00
  50.660    1174.00
  50.680    1191.00
  50.700    1247.00
  50.720    1169.00
  50.740    1144.00
  50.760    1190.00
  50.780    1174.00
  50.800    1162.00
  50.820    1130.00
  50.840    1198.00
  50.860    1232.00
  50.880    1223.00
  50.900    1157.00
  50.920    1228.00
  50.940    1193.00
  50.960    1192.00
  50.980    1169.00
  51.000    1184.00
  51.020    1195.00
  51.040    1218.00
  51.060    1213.00
  51.080    1252.00
  51.100    1165.00
  51.120    1161.00
  51.140    1192.00
  51.160    1220.00
  51.180    1162.00
  51.200    1119.00
  51.220    1200.00
  51.240    1253.00
  51.260    1217.00
  51.280    1176.00
  51.300    1171.00
  51.320    1212.00
  51.340    1153.00
  51.360    1139.00
  51.380    1131.00
  51.400    1233.00
  51.420    1241.00
  51.440    1214.00
  51.460    1134.00
  51.480    1193.00
  51.500    1144.00
  51.520    1178.00
  51.540    1229.00
  51.560    1201.00
  51.580    1210.00
  51.600    1144.00
  51.620    1220.00
  51.640    1119.00
  51.660    1174.00
  51.680    1156.00
  51.700    1156.00
  51.720    1200.00
  51.740    1217.00
  51.760    1140.00
  51.780    1189.00
  51.800    1160.00
  51.820    1219.00
  51.840    1164.00
  51.860    1168.00
  51.880    1162.00
  51.900    1104.00
  51.920    1113.00
  51.940    1154.00
  51.960    1165.00
  51.980    1157.00
  52.000    1164.00
  52.020    1184.00
  52.040    1156.00
  52.060    1104.00
  52.080    1218.00
  52.100    1150.00
  52.120    1145.00
  52.140    1140.00
  52.160    1190.00
  52.180    1244.00
  52.200    1172.00
  52.220    1182.00
  52.240    1111.00
  52.260    1181.00
  52.280    1139.00
  52.300    1125.00
  52.320    1219.00
  52.340    1236.00
  52.360    1218.00
  52.380    1194.00
  52.400    1162.00
  52.420    1166.00
  52.440    1215.00
  52.460    1185.00
  52.480    1192.00
  52.500    1187.00
  52.520    1209.00
  52.540    1188.00
  52.560    1239.00
  52.580    1213.00
  52.600    1177.00
  52.620    1197.00
  52.640    1195.00
  52.660    1208.00
  52.680    1223.00
  52.700    1201.00
  52.720    1161.00
  52.740    1170.00
  52.760    1222.00
  52.780    1164.00
  52.800    1216.00
  52.820    1270.00
  52.840    1219.00
  52.860    1160.00
  52.880    1183.00
  52.900    1138.00
  52.920    1235.00
  52.940    1229.00
  52.960    1169.00
  52.980    1175.00
  53.000    1265.00
  53.020    1215.00
  53.040    1190.00
  53.060    1240.00
  53.080    1252.00
  53.100    1221.00
  53.120    1241.00
  53.140    1210.00
  53.160    1201.00
  53.180    1239.00
  53.200    1159.00
  53.220    1233.00
  53.240    1247.00
  53.260    1185.00
  53.280    1226.00
  53.300    1220.00
  53.320    1169.00
  53.340    1194.00
  53.360    1223.00
  53.380    1214.00
  53.400    1188.00
  53.420    1171.00
  53.440    1199.00
  53.460    1191.00
  53.480    1146.00
  53.500    1235.00
  53.520    1128.00
  53.540    1125.00
  53.560    1203.00
  53.580    1211.00
  53.600    1175.00
  53.620    1126.00
  53.640    1156.00
  53.660    1126.00
  53.680    1182.00
  53.700    1174.00
  53.720    1171.00
  53.740    1240.00
  53.760    1243.00
  53.780    1259.00
  53.800    1202.00
  53.820    1235.00
  53.840    1180.00
  53.860    1183.00
  53.880    1204.00
  53.900    1246.00
  53.920    1169.00
  53.940    1227.00
  53.960    1149.00
  53.980    1193.00
  54.000    1178.00
  54.020    1186.00
  54.040    1229.00
  54.060    1202.00
  54.080    1178.00
  54.100    1176.00
  54.120    1261.00
  54.140    1172.00
  54.160    1259.00
  54.180    1154.00
  54.200    1132.00
  54.220    1263.00
  54.240    1243.00
  54.260    1232.00
  54.280    1134.00
  54.300    1264.00
  54.320    1150.00
  54.340    1163.00
  54.360    1183.00
  54.380    1191.00
  54.400    1191.00
  54.420    1151.00
  54.440    1170.00
  54.460    1216.00
  54.480    1134.00
  54.500    1252.00
  54.520    1163.00
  54.540    1257.00
  54.560    1193.00
  54.580    1162.00
  54.600    1150.00
  54.620    1138.00
  54.640    1245.00
  54.660    1217.00
  54.680    1185.00
  54.700    1213.00
  54.720    1190.00
  54.740    1173.00
  54.760    1270.00
  54.780    1193.00
  54.800    1217.00
  54.820    1249.00
  54.840    1159.00
  54.860    1149.00
  54.880    1243.00
  54.900    1183.00
  54.920    1183.00
  54.940    1241.00
  54.960    1256.00
  54.980    1247.00
  55.000    1175.00
  55.020    1274.00
  55.040    1164.00
  55.060    1191.00
  55.080    1272.00
  55.100    1206.00
  55.120    1221.00
  55.140    1160.00
  55.160    1198.00
  55.180    1177.00
  55.200    1240.00
  55.220    1231.00
  55.240    1166.00
  55.260    1172.00
  55.280    1194.00
  55.300    1279.00
  55.320    1297.00
  55.340    1220.00
  55.360    1258.00
  55.380    1306.00
  55.400    1283.00
  55.420    1256.00
  55.440    1199.00
  55.460    1293.00
  55.480    1313.00
  55.500    1292.00
  55.520    1211.00
  55.540    1285.00
  55.560    1235.00
  55.580    1284.00
  55.600    1305.00
  55.620    1338.00
  55.640    1355.00
  55.660    1341.00
  55.680    1342.00
  55.700    1330.00
  55.720    1339.00
  55.740    1281.00
  55.760    1399.00
  55.780    1338.00
  55.800    1408.00
  55.820    1331.00
  55.840    1467.00
  55.860    1485.00
  55.880    1395.00
  55.900    1518.00
  55.920    1522.00
  55.940    1565.00
  55.960    1606.00
  55.980    1642.00
  56.000    1714.00
  56.020    1669.00
  56.040    1703.00
  56.060    1815.00
  56.080    1879.00
  56.100    1968.00
  56.120    2044.00
  56.140    2302.00
  56.160    2536.00
  56.180    2635.00
  56.200    2861.00
  56.220    3157.00
  56.240    3488.00
  56.260    3844.00
  56.280    4241.00
  56.300    4544.00
  56.320    5154.00
  56.340    5658.00
  56.360    5884.00
  56.380    6562.00
  56.400    6788.00
  56.420    7166.00
  56.440    7350.00
  56.460    7548.00
  56.480    7452.00
  56.500    7150.00
  56.520    6897.00
  56.540    6602.00
  56.560    6031.00
  56.580    5550.00
  56.600    5179.00
  56.620    4676.00
  56.640    4275.00
  56.660    3928.00
  56.680    3571.00
  56.700    3248.00
  56.720    2989.00
  56.740    2755.00
  56.760    2421.00
  56.780    2304.00
  56.800    2182.00
  56.820    2045.00
  56.840    2003.00
  56.860    1883.00
  56.880    1762.00
  56.900    1709.00
  56.920    1716.00
  56.940    1592.00
  56.960    1607.00
  56.980    1526.00
  57.000    1515.00
  57.020    1542.00
  57.040    1373.00
  57.060    1428.00
  57.080    1387.00
  57.100    1334.00
  57.120    1363.00
  57.140    1357.00
  57.160    1395.00
  57.180    1382.00
  57.200    1355.00
  57.220    1354.00
  57.240    1337.00
  57.260    1374.00
  57.280    1313.00
  57.300    1318.00
  57.320    1329.00
  57.340    1298.00
  57.360    1296.00
  57.380    1315.00
  57.400    1309.00
  57.420    1295.00
  57.440    1252.00
  57.460    1321.00
  57.480    1282.00
  57.500    1250.00
  57.520    1293.00
  57.540    1267.00
  57.560    1194.00
  57.580    1259.00
  57.600    1294.00
  57.620    1235.00
  57.640    1225.00
  57.660    1328.00
  57.680    1225.00
  57.700    1225.00
  57.720    1295.00
  57.740    1266.00
  57.760    1288.00
  57.780    1272.00
  57.800    1242.00
  57.820    1239.00
  57.840    1229.00
  57.860    1232.00
  57.880    1258.00
  57.900    1254.00
  57.920    1249.00
  57.940    1238.00
  57.960    1232.00
  57.980    1309.00
  58.000    1288.00
  58.020    1264.00
  58.040    1261.00
  58.060    1220.00
  58.080    1287.00
  58.100    1286.00
  58.120    1217.00
  58.140    1248.00
  58.160    1310.00
  58.180    1241.00
  58.200    1283.00
  58.220    1267.00
  58.240    1256.00
  58.260    1228.00
  58.280    1265.00
  58.300    1254.00
  58.320    1300.00
  58.340    1295.00
  58.360    1245.00
  58.380    1367.00
  58.400    1223.00
  58.420    1314.00
  58.440    1221.00
  58.460    1317.00
  58.480    1260.00
  58.500    1150.00
  58.520    1363.00
  58.540    1248.00
  58.560    1279.00
  58.580    1301.00
  58.600    1335.00
  58.620    1325.00
  58.640    1344.00
  58.660    1357.00
  58.680    1347.00
  58.700    1300.00
  58.720    1311.00
  58.740    1338.00
  58.760    1315.00
  58.780    1335.00
  58.800    1357.00
  58.820    1357.00
  58.840    1397.00
  58.860    1401.00
  58.880    1459.00
  58.900    1536.00
  58.920    1540.00
  58.940    1675.00
  58.960    1622.00
  58.980    1687.00
  59.000    1796.00
  59.020    1937.00
  59.040    1954.00
  59.060    2002.00
  59.080    2033.00
  59.100    2113.00
  59.120    2386.00
  59.140    2344.00
  59.160    2521.00
  59.180    2543.00
  59.200    2452.00
  59.220    2450.00
  59.240    2432.00
  59.260    2436.00
  59.280    2312.00
  59.300    2263.00
  59.320    2204.00
  59.340    2189.00
  59.360    2015.00
  59.380    1948.00
  59.400    1851.00
  59.420    1699.00
  59.440    1706.00
  59.460    1672.00
  59.480    1577.00
  59.500    1524.00
  59.520    1467.00
  59.540    1499.00
  59.560    1474.00
  59.580    1422.00
  59.600    1403.00
  59.620    1383.00
  59.640    1390.00
  59.660    1285.00
  59.680    1306.00
  59.700    1349.00
  59.720    1360.00
  59.740    1361.00
  59.760    1354.00
  59.780    1338.00
  59.800    1319.00
  59.820    1386.00
  59.840    1291.00
  59.860    1279.00
  59.880    1319.00
  59.900    1352.00
  59.920    1308.00
  59.940    1279.00
  59.960    1255.00
  59.980    1319.00
  60.000    1311.00
  60.020    1249.00
  60.040    1296.00
  60.060    1275.00
  60.080    1256.00
  60.100    1287.00
  60.120    1264.00
  60.140    1331.00
  60.160    1261.00
  60.180    1260.00
  60.200    1303.00
  60.220    1288.00
  60.240    1231.00
  60.260    1289.00
  60.280    1300.00
  60.300    1244.00
  60.320    1268.00
  60.340    1280.00
  60.360    1257.00
  60.380    1249.00
  60.400    1259.00
  60.420    1316.00
  60.440    1252.00
  60.460    1240.00
  60.480    1260.00
  60.500    1264.00
  60.520    1271.00
  60.540    1256.00
  60.560    1307.00
  60.580    1332.00
  60.600    1270.00
  60.620    1256.00
  60.640    1233.00
  60.660    1255.00
  60.680    1273.00
  60.700    1246.00
  60.720    1288.00
  60.740    1235.00
  60.760    1252.00
  60.780    1301.00
  60.800    1239.00
  60.820    1298.00
  60.840    1257.00
  60.860    1217.00
  60.880    1249.00
  60.900    1278.00
  60.920    1284.00
  60.940    1225.00
  60.960    1315.00
  60.980    1322.00
  61.000    1272.00
  61.020    1208.00
  61.040    1295.00
  61.060    1264.00
  61.080    1303.00
  61.100    1336.00
  61.120    1297.00
  61.140    1334.00
  61.160    1263.00
  61.180    1306.00
  61.200    1381.00
  61.220    1306.00
  61.240    1258.00
  61.260    1361.00
  61.280    1346.00
  61.300    1286.00
  61.320    1277.00
  61.340    1189.00
  61.360    1298.00
  61.380    1292.00
  61.400    1242.00
  61.420    1282.00
  61.440    1258.00
  61.460    1251.00
  61.480    1296.00
  61.500    1248.00
  61.520    1223.00
  61.540    1291.00
  61.560    1249.00
  61.580    1270.00
  61.600    1266.00
  61.620    1221.00
  61.640    1231.00
  61.660    1258.00
  61.680    1279.00
  61.700    1263.00
  61.720    1299.00
  61.740    1263.00
  61.760    1260.00
  61.780    1243.00
  61.800    1259.00
  61.820    1253.00
  61.840    1272.00
  61.860    1270.00
  61.880    1253.00
  61.900    1276.00
  61.920    1231.00
  61.940    1238.00
  61.960    1210.00
  61.980    1251.00
  62.000    1314.00
  62.020    1221.00
  62.040    1220.00
  62.060    1296.00
  62.080    1261.00
  62.100    1247.00
  62.120    1260.00
  62.140    1275.00
  62.160    1279.00
  62.180    1275.00
  62.200    1267.00
  62.220    1256.00
  62.240    1327.00
  62.260    1262.00
  62.280    1211.00
  62.300    1295.00
  62.320    1270.00
  62.340    1257.00
  62.360    1263.00
  62.380    1185.00
  62.400    1262.00
  62.420    1261.00
  62.440    1246.00
  62.460    1214.00
  62.480    1296.00
  62.500    1214.00
  62.520    1240.00
  62.540    1226.00
  62.560    1351.00
  62.580    1246.00
  62.600    1296.00
  62.620    1293.00
  62.640    1309.00
  62.660    1270.00
  62.680    1206.00
  62.700    1312.00
  62.720    1271.00
  62.740    1171.00
  62.760    1271.00
  62.780    1264.00
  62.800    1297.00
  62.820    1270.00
  62.840    1255.00
  62.860    1255.00
  62.880    1252.00
  62.900    1295.00
  62.920    1308.00
  62.940    1336.00
  62.960    1310.00
  62.980    1279.00
  63.000    1259.00
  63.020    1308.00
  63.040    1291.00
  63.060    1271.00
  63.080    1265.00
  63.100    1324.00
  63.120    1297.00
  63.140    1258.00
  63.160    1250.00
  63.180    1281.00
  63.200    1310.00
  63.220    1307.00
  63.240    1268.00
  63.260    1303.00
  63.280    1240.00
  63.300    1255.00
  63.320    1272.00
  63.340    1331.00
  63.360    1301.00
  63.380    1248.00
  63.400    1222.00
  63.420    1329.00
  63.440    1287.00
  63.460    1271.00
  63.480    1281.00
  63.500    1276.00
  63.520    1323.00
  63.540    1269.00
  63.560    1269.00
  63.580    1318.00
  63.600    1215.00
  63.620    1284.00
  63.640    1328.00
  63.660    1339.00
  63.680    1271.00
  63.700    1308.00
  63.720    1253.00
  63.740    1301.00
  63.760    1251.00
  63.780    1292.00
  63.800    1288.00
  63.820    1265.00
  63.840    1329.00
  63.860    1281.00
  63.880    1218.00
  63.900    1338.00
  63.920    1283.00
  63.940    1251.00
  63.960    1264.00
  63.980    1323.00
  64.000    1260.00
  64.020    1260.00
  64.040    1267.00
  64.060    1269.00
  64.080    1297.00
  64.100    1298.00
  64.120    1304.00
  64.140    1273.00
  64.160    1297.00
  64.180    1261.00
  64.200    1286.00
  64.220    1264.00
  64.240    1293.00
  64.260    1253.00
  64.280    1326.00
  64.300    1315.00
  64.320    1299.00
  64.340    1255.00
  64.360    1270.00
  64.380    1204.00
  64.400    1294.00
  64.420    1283.00
  64.440    1313.00
  64.460    1262.00
  64.480    1281.00
  64.500    1303.00
