26 28
26.02 28
26.04 19
26.06 29
26.08 24
26.10 27
26.12 27
26.14 29
26.16 28
26.18 30
26.20 27
26.22 29
26.24 21
26.26 30
26.28 21
26.30 23
26.32 27
26.34 37
26.36 27
26.38 22
26.40 20
26.42 34
26.44 23
26.46 33
26.48 27
26.50 25
26.52 40
26.54 28
26.56 41
26.58 16
26.60 25
26.62 27
26.64 26
26.66 27
26.68 18
26.70 38
26.72 33
26.74 37
26.76 18
26.78 31
26.80 22
26.82 26
26.84 28
26.86 29
26.88 35
26.90 29
26.92 23
26.94 28
26.96 30
26.98 28
27.00 28
27.02 32
27.04 28
27.06 20
27.08 28
27.10 27
27.12 30
27.14 22
27.16 31
27.18 38
27.20 30
27.22 32
27.24 30
27.26 27
27.28 28
27.30 34
27.32 35
27.34 33
27.36 32
27.38 36
27.40 21
27.42 36
27.44 28
27.46 27
27.48 30
27.50 28
27.52 37
27.54 15
27.56 27
27.58 32
27.60 24
27.62 22
27.64 37
27.66 35
27.68 31
27.70 28
27.72 30
27.74 28
27.76 25
27.78 21
27.80 34
27.82 29
27.84 39
27.86 25
27.88 30
27.90 28
27.92 26
27.94 30
27.96 20
27.98 31
28.00 22
28.02 37
28.04 26
28.06 30
28.08 25
28.10 30
28.12 29
28.14 36
28.16 28
28.18 31
28.20 41
28.22 34
28.24 28
28.26 27
28.28 29
28.30 25
28.32 18
28.34 32
28.36 22
28.38 25
28.40 22
28.42 25
28.44 34
28.46 19
28.48 43
28.50 18
28.52 30
28.54 29
28.56 32
28.58 28
28.60 30
28.62 34
28.64 34
28.66 44
28.68 29
28.70 39
28.72 30
28.74 40
28.76 34
28.78 23
28.80 39
28.82 31
28.84 31
28.86 36
28.88 40
28.90 35
28.92 29
28.94 39
28.96 35
28.98 26
29.00 25
29.02 32
29.04 34
29.06 23
29.08 33
29.10 29
29.12 26
29.14 33
29.16 35
29.18 33
29.20 30
29.22 26
29.24 28
29.26 26
29.28 21
29.30 37
29.32 28
29.34 20
29.36 37
29.38 35
29.40 32
29.42 33
29.44 34
29.46 33
29.48 35
29.50 47
29.52 34
29.54 33
29.56 26
29.58 36
29.60 31
29.62 29
29.64 25
29.66 37
29.68 36
29.70 27
29.72 26
29.74 36
29.76 21
29.78 26
29.80 35
29.82 30
29.84 32
29.86 24
29.88 27
29.90 31
29.92 24
29.94 34
29.96 37
29.98 27
30.00 31
30.02 40
30.04 27
30.06 35
30.08 41
30.10 37
30.12 42
30.14 37
30.16 29
30.18 35
30.20 29
30.22 40
30.24 24
30.26 51
30.28 29
30.30 31
30.32 43
30.34 43
30.36 35
30.38 39
30.40 33
30.42 39
30.44 38
30.46 37
30.48 41
30.50 27
30.52 53
30.54 40
30.56 49
30.58 24
30.60 58
30.62 50
30.64 48
30.66 43
30.68 37
30.70 44
30.72 37
30.74 41
30.76 53
30.78 48
30.80 53
30.82 49
30.84 50
30.86 47
30.88 45
30.90 55
30.92 45
30.94 54
30.96 55
30.98 62
31.00 47
31.02 59
31.04 68
31.06 68
31.08 83
31.10 90
31.12 79
31.14 83
31.16 91
31.18 103
31.20 86
31.22 128
31.24 100
31.26 105
31.28 133
31.30 142
31.32 148
31.34 180
31.36 179
31.38 222
31.40 265
31.42 296
31.44 343
31.46 403
31.48 503
31.50 593
31.52 768
31.54 956
31.56 1237
31.58 1741
31.60 2157
31.62 2685
31.64 3629
31.66 5373
31.68 7556
31.70 10909
31.72 14253
31.74 16028
31.76 15025
31.78 12083
31.80 10291
31.82 9397
31.84 7692
31.86 5372
31.88 3283
31.90 2154
31.92 1595
31.94 1106
31.96 891
31.98 712
32.00 563
32.02 487
32.04 372
32.06 343
32.08 273
32.10 203
32.12 199
32.14 169
32.16 143
32.18 151
32.20 147
32.22 132
32.24 122
32.26 106
32.28 91
32.30 116
32.32 91
32.34 80
32.36 84
32.38 76
32.40 65
32.42 64
32.44 58
32.46 67
32.48 62
32.50 63
32.52 58
32.54 45
32.56 54
32.58 52
32.60 61
32.62 52
32.64 46
32.66 50
32.68 56
32.70 52
32.72 46
32.74 53
32.76 53
32.78 47
32.80 55
32.82 63
32.84 43
32.86 60
32.88 53
32.90 43
32.92 38
32.94 51
32.96 40
32.98 54
33.00 52
33.02 43
33.04 53
33.06 45
33.08 55
33.10 44
33.12 40
33.14 48
33.16 42
33.18 57
33.20 46
33.22 50
33.24 46
33.26 47
33.28 47
33.30 37
33.32 53
33.34 36
33.36 51
33.38 50
33.40 51
33.42 52
33.44 44
33.46 55
33.48 55
33.50 51
33.52 62
33.54 62
33.56 65
33.58 63
33.60 46
33.62 56
33.64 66
33.66 70
33.68 53
33.70 67
33.72 66
33.74 64
33.76 69
33.78 66
33.80 76
33.82 95
33.84 85
33.86 94
33.88 74
33.90 87
33.92 91
33.94 101
33.96 115
33.98 109
34.00 122
34.02 113
34.04 126
34.06 165
34.08 191
34.10 240
34.12 245
34.14 335
34.16 403
34.18 508
34.20 683
34.22 838
34.24 1012
34.26 1385
34.28 1772
34.30 2530
34.32 3994
34.34 7541
34.36 10624
34.38 11872
34.40 11024
34.42 9302
34.44 8167
34.46 7597
34.48 6660
34.50 5137
34.52 3387
34.54 2132
34.56 1397
34.58 982
34.60 726
34.62 566
34.64 458
34.66 381
34.68 296
34.70 280
34.72 212
34.74 195
34.76 174
34.78 176
34.80 124
34.82 126
34.84 118
34.86 114
34.88 114
34.90 109
34.92 107
34.94 86
34.96 89
34.98 75
35.00 98
35.02 88
35.04 76
35.06 75
35.08 62
35.10 75
35.12 75
35.14 76
35.16 85
35.18 73
35.20 72
35.22 74
35.24 85
35.26 74
35.28 80
35.30 81
35.32 91
35.34 74
35.36 73
35.38 91
35.40 79
35.42 82
35.44 124
35.46 102
35.48 108
35.50 108
35.52 101
35.54 112
35.56 121
35.58 122
35.60 160
35.62 144
35.64 131
35.66 170
35.68 179
35.70 161
35.72 191
35.74 205
35.76 210
35.78 234
35.80 289
35.82 333
35.84 323
35.86 391
35.88 420
35.90 495
35.92 575
35.94 684
35.96 827
35.98 1000
36.00 1217
36.02 1528
36.04 1882
36.06 2534
36.08 3149
36.10 4141
36.12 5456
36.14 7406
36.16 10677
36.18 15627
36.20 21593
36.22 25528
36.24 24616
36.26 20293
36.28 16735
36.30 15356
36.32 14555
36.34 12502
36.36 8634
36.38 5607
36.40 3641
36.42 2570
36.44 1887
36.46 1569
36.48 1217
36.50 955
36.52 799
36.54 621
36.56 580
36.58 498
36.60 372
36.62 368
36.64 333
36.66 278
36.68 262
36.70 234
36.72 208
36.74 183
36.76 170
36.78 174
36.80 148
36.82 139
36.84 139
36.86 124
36.88 129
36.90 93
36.92 95
36.94 95
36.96 91
36.98 86
37.00 92
37.02 68
37.04 93
37.06 89
37.08 96
37.10 64
37.12 62
37.14 56
37.16 72
37.18 60
37.20 71
37.22 64
37.24 60
37.26 34
37.28 64
37.30 64
37.32 47
37.34 45
37.36 48
37.38 58
37.40 47
37.42 59
37.44 50
37.46 47
37.48 51
37.50 41
37.52 45
37.54 57
37.56 43
37.58 39
37.60 48
37.62 48
37.64 29
37.66 44
37.68 46
37.70 41
37.72 35
37.74 53
37.76 41
37.78 48
37.80 53
37.82 52
37.84 51
37.86 42
37.88 54
37.90 48
37.92 43
37.94 45
37.96 44
37.98 45
38.00 47
38.02 40
38.04 44
38.06 39
38.08 40
38.10 37
38.12 40
38.14 47
38.16 30
38.18 47
38.20 39
38.22 32
38.24 31
38.26 38
38.28 34
38.30 29
38.32 48
38.34 38
38.36 34
38.38 34
38.40 27
38.42 32
38.44 42
38.46 40
38.48 49
38.50 43
38.52 40
38.54 42
38.56 34
38.58 36
38.60 31
38.62 32
38.64 37
38.66 31
38.68 34
38.70 46
38.72 30
38.74 36
38.76 29
38.78 29
38.80 36
38.82 44
38.84 37
38.86 44
38.88 29
38.90 44
38.92 31
38.94 27
38.96 33
38.98 33
39.00 45
39.02 34
39.04 45
39.06 26
39.08 36
39.10 38
39.12 36
39.14 29
39.16 33
39.18 24
39.20 40
39.22 29
39.24 31
39.26 33
39.28 39
39.30 30
39.32 34
39.34 36
39.36 28
39.38 31
39.40 36
39.42 35
39.44 34
39.46 37
39.48 28
39.50 37
39.52 29
39.54 32
39.56 35
39.58 33
39.60 38
39.62 26
39.64 28
39.66 45
39.68 35
39.70 46
39.72 36
39.74 35
39.76 37
39.78 37
39.80 44
39.82 32
39.84 38
39.86 40
39.88 36
39.90 26
39.92 34
39.94 31
39.96 40
39.98 38
40.00 36
40.02 33
40.04 27
40.06 34
40.08 24
40.10 34
40.12 25
40.14 33
40.16 27
40.18 24
40.20 24
40.22 32
40.24 27
40.26 31
40.28 27
40.30 31
40.32 36
40.34 45
40.36 37
40.38 32
40.40 33
40.42 39
40.44 30
40.46 25
40.48 28
40.50 36
40.52 28
40.54 30
40.56 36
40.58 43
40.60 32
40.62 36
40.64 41
40.66 39
40.68 34
40.70 34
40.72 30
40.74 39
40.76 30
40.78 29
40.80 35
40.82 33
40.84 26
40.86 27
40.88 35
40.90 35
40.92 39
40.94 32
40.96 40
40.98 30
41.00 26
41.02 38
41.04 38
41.06 31
41.08 43
41.10 31
41.12 36
41.14 36
41.16 33
41.18 23
41.20 40
41.22 27
41.24 28
41.26 25
41.28 26
41.30 22
41.32 31
41.34 29
41.36 36
41.38 25
41.40 29
41.42 28
41.44 34
41.46 26
41.48 20
41.50 32
41.52 41
41.54 28
41.56 36
41.58 19
41.60 34
41.62 28
41.64 28
41.66 26
41.68 35
41.70 30
41.72 34
41.74 39
41.76 32
41.78 27
41.80 26
41.82 36
41.84 27
41.86 38
41.88 29
41.90 29
41.92 25
41.94 36
41.96 34
41.98 26
42.00 37
42.02 34
42.04 31
42.06 22
42.08 35
42.10 24
42.12 27
42.14 28
42.16 44
42.18 37
42.20 34
42.22 31
42.24 32
42.26 25
42.28 34
42.30 28
42.32 34
42.34 25
42.36 31
42.38 36
42.40 25
42.42 28
42.44 27
42.46 24
42.48 30
42.50 25
42.52 21
42.54 40
42.56 34
42.58 37
42.60 28
42.62 33
42.64 33
42.66 31
42.68 33
42.70 28
42.72 43
42.74 32
42.76 25
42.78 30
42.80 20
42.82 32
42.84 29
42.86 29
42.88 41
42.90 26
42.92 29
42.94 31
42.96 20
42.98 33
43.00 34
43.02 33
43.04 24
43.06 25
43.08 20
43.10 29
43.12 30
43.14 36
43.16 29
43.18 35
43.20 36
43.22 35
43.24 37
43.26 29
43.28 26
43.30 37
43.32 34
43.34 42
43.36 29
43.38 31
43.40 29
43.42 29
43.44 29
43.46 38
43.48 29
43.50 34
43.52 33
43.54 27
43.56 29
43.58 31
43.60 27
43.62 21
43.64 30
43.66 36
43.68 25
43.70 33
43.72 34
43.74 26
43.76 30
43.78 30
43.80 39
43.82 27
43.84 32
43.86 27
43.88 29
43.90 30
43.92 26
43.94 31
43.96 33
43.98 25
44.00 29
44.02 34
44.04 25
44.06 28
44.08 36
44.10 22
44.12 32
44.14 31
44.16 27
44.18 41
44.20 30
44.22 29
44.24 49
44.26 29
44.28 23
44.30 42
44.32 33
44.34 24
44.36 32
44.38 29
44.40 30
44.42 23
44.44 32
44.46 35
44.48 28
44.50 38
44.52 36
44.54 30
44.56 31
44.58 32
44.60 23
44.62 36
44.64 26
44.66 35
44.68 36
44.70 26
44.72 27
44.74 27
44.76 27
44.78 33
44.80 32
44.82 39
44.84 39
44.86 27
44.88 31
44.90 41
44.92 30
44.94 20
44.96 25
44.98 22
45.00 37
45.02 33
45.04 39
45.06 34
45.08 36
45.10 35
45.12 30
45.14 42
45.16 30
45.18 30
45.20 20
45.22 42
45.24 35
45.26 39
45.28 43
45.30 22
45.32 25
45.34 45
45.36 32
45.38 37
45.40 47
45.42 33
45.44 30
45.46 22
45.48 33
45.50 32
45.52 34
45.54 28
45.56 21
45.58 32
45.60 34
45.62 28
45.64 32
45.66 33
45.68 27
45.70 25
45.72 41
45.74 35
45.76 24
45.78 32
45.80 35
45.82 35
45.84 27
45.86 34
45.88 27
45.90 41
45.92 29
45.94 15
45.96 34
45.98 29
46.00 24
46.02 30
46.04 34
46.06 37
46.08 36
46.10 22
46.12 31
46.14 37
46.16 33
46.18 29
46.20 26
46.22 34
46.24 37
46.26 33
46.28 30
46.30 35
46.32 41
46.34 44
46.36 45
46.38 45
46.40 30
46.42 45
46.44 42
46.46 34
46.48 41
46.50 50
46.52 39
46.54 46
46.56 42
46.58 57
46.60 51
46.62 39
46.64 39
46.66 31
46.68 49
46.70 39
46.72 44
46.74 51
46.76 52
46.78 50
46.80 44
46.82 53
46.84 69
46.86 50
46.88 57
46.90 64
46.92 64
46.94 64
46.96 76
46.98 83
47.00 67
47.02 77
47.04 89
47.06 95
47.08 94
47.10 106
47.12 114
47.14 140
47.16 126
47.18 164
47.20 199
47.22 241
47.24 234
47.26 308
47.28 377
47.30 408
47.32 455
47.34 594
47.36 716
47.38 934
47.40 1091
47.42 1478
47.44 2135
47.46 3213
47.48 4608
47.50 5707
47.52 5952
47.54 4897
47.56 3573
47.58 2950
47.60 2962
47.62 3175
47.64 3402
47.66 2838
47.68 1989
47.70 1333
47.72 950
47.74 670
47.76 501
47.78 417
47.80 386
47.82 286
47.84 235
47.86 206
47.88 196
47.90 168
47.92 146
47.94 118
47.96 123
47.98 107
48.00 80
48.02 87
48.04 60
48.06 75
48.08 80
48.10 77
48.12 69
48.14 59
48.16 69
48.18 61
48.20 71
48.22 47
48.24 53
48.26 58
48.28 49
48.30 49
48.32 56
48.34 49
48.36 41
48.38 41
48.40 37
48.42 42
48.44 35
48.46 44
48.48 47
48.50 55
48.52 40
48.54 39
48.56 34
48.58 30
48.60 47
48.62 40
48.64 43
48.66 39
48.68 25
48.70 49
48.72 29
48.74 36
48.76 33
48.78 34
48.80 39
48.82 45
48.84 42
48.86 30
48.88 42
48.90 33
48.92 27
48.94 36
48.96 41
48.98 28
49.00 35
49.02 39
49.04 40
49.06 33
49.08 38
49.10 26
49.12 33
49.14 34
49.16 28
49.18 31
49.20 33
49.22 26
49.24 37
49.26 33
49.28 26
49.30 35
49.32 22
49.34 24
49.36 32
49.38 35
49.40 31
49.42 33
49.44 26
49.46 27
49.48 25
49.50 36
49.52 23
49.54 30
49.56 34
49.58 36
49.60 34
49.62 30
49.64 30
49.66 27
49.68 36
49.70 28
49.72 32
49.74 27
49.76 31
49.78 37
49.80 31
49.82 38
49.84 36
49.86 30
49.88 32
49.90 36
49.92 31
49.94 32
49.96 35
49.98 22
50.00 29
50.02 41
50.04 40
50.06 32
50.08 24
50.10 17
50.12 46
50.14 30
50.16 35
50.18 41
50.20 35
50.22 34
50.24 34
50.26 23
50.28 18
50.30 28
50.32 33
50.34 30
50.36 27
50.38 30
50.40 30
50.42 28
50.44 30
50.46 35
50.48 42
50.50 28
50.52 24
50.54 32
50.56 28
50.58 25
50.60 36
50.62 39
50.64 31
50.66 40
50.68 42
50.70 43
50.72 32
50.74 26
50.76 34
50.78 33
50.80 37
50.82 23
50.84 31
50.86 30
50.88 40
50.90 33
50.92 26
50.94 35
50.96 25
50.98 34
51.00 32
51.02 29
51.04 33
51.06 38
51.08 32
51.10 32
51.12 32
51.14 28
51.16 32
51.18 38
51.20 40
51.22 24
51.24 20
51.26 44
51.28 32
51.30 38
51.32 26
51.34 34
51.36 40
51.38 20
51.40 24
51.42 24
51.44 31
51.46 35
51.48 24
51.50 35
51.52 28
51.54 23
51.56 28
51.58 25
51.60 29
51.62 29
51.64 21
51.66 32
51.68 38
51.70 30
51.72 20
51.74 39
51.76 29
51.78 28
51.80 29
51.82 32
51.84 40
51.86 39
51.88 35
51.90 31
51.92 24
51.94 31
51.96 33
51.98 34
52.00 38
52.02 34
52.04 33
52.06 35
52.08 31
52.10 31
52.12 27
52.14 37
52.16 24
52.18 39
52.20 30
52.22 42
52.24 40
52.26 24
52.28 38
52.30 46
52.32 33
52.34 27
52.36 34
52.38 36
52.40 31
52.42 30
52.44 41
52.46 41
52.48 34
52.50 28
52.52 31
52.54 37
52.56 29
52.58 32
52.60 36
52.62 36
52.64 35
52.66 38
52.68 31
52.70 36
52.72 26
52.74 41
52.76 36
52.78 26
52.80 36
52.82 42
52.84 42
52.86 29
52.88 25
52.90 22
52.92 35
52.94 26
52.96 18
52.98 35
53.00 33
53.02 28
53.04 46
53.06 30
53.08 25
53.10 27
53.12 34
53.14 27
53.16 20
53.18 28
53.20 26
53.22 26
53.24 39
53.26 28
53.28 41
53.30 37
53.32 21
53.34 42
53.36 30
53.38 32
53.40 38
53.42 30
53.44 37
53.46 38
53.48 29
53.50 37
53.52 42
53.54 29
53.56 29
53.58 32
53.60 26
53.62 32
53.64 37
53.66 37
53.68 39
53.70 35
53.72 39
53.74 28
53.76 36
53.78 41
53.80 30
53.82 32
53.84 30
53.86 32
53.88 25
53.90 32
53.92 23
53.94 39
53.96 42
53.98 27
54.00 38
54.02 24
54.04 47
54.06 42
54.08 34
54.10 44
54.12 49
54.14 43
54.16 29
54.18 35
54.20 39
54.22 40
54.24 37
54.26 36
54.28 42
54.30 39
54.32 42
54.34 41
54.36 46
54.38 44
54.40 42
54.42 49
54.44 36
54.46 37
54.48 36
54.50 43
54.52 28
54.54 39
54.56 46
54.58 45
54.60 33
54.62 43
54.64 34
54.66 35
54.68 36
54.70 27
54.72 37
54.74 34
54.76 37
54.78 44
54.80 34
54.82 40
54.84 50
54.86 29
54.88 46
54.90 46
54.92 43
54.94 54
54.96 46
54.98 39
55.00 53
55.02 46
55.04 52
55.06 42
55.08 46
55.10 55
55.12 38
55.14 44
55.16 59
55.18 55
55.20 60
55.22 38
55.24 46
55.26 52
55.28 43
55.30 50
55.32 33
55.34 58
55.36 51
55.38 53
55.40 41
55.42 53
55.44 56
55.46 58
55.48 59
55.50 57
55.52 58
55.54 64
55.56 64
55.58 67
55.60 64
55.62 71
55.64 74
55.66 70
55.68 66
55.70 61
55.72 68
55.74 66
55.76 74
55.78 85
55.80 80
55.82 70
55.84 83
55.86 86
55.88 102
55.90 73
55.92 82
55.94 112
55.96 113
55.98 101
56.00 111
56.02 136
56.04 122
56.06 134
56.08 150
56.10 165
56.12 175
56.14 177
56.16 213
56.18 220
56.20 221
56.22 272
56.24 288
56.26 362
56.28 371
56.30 471
56.32 486
56.34 582
56.36 734
56.38 838
56.40 1032
56.42 1226
56.44 1613
56.46 2086
56.48 2612
56.50 3715
56.52 4914
56.54 6115
56.56 6875
56.58 6798
56.60 5885
56.62 4542
56.64 3911
56.66 3689
56.68 3731
56.70 4111
56.72 4082
56.74 3659
56.76 3030
56.78 2179
56.80 1614
56.82 1254
56.84 988
56.86 793
56.88 644
56.90 567
56.92 453
56.94 430
56.96 364
56.98 307
57.00 257
57.02 257
57.04 215
57.06 188
57.08 186
57.10 182
57.12 161
57.14 114
57.16 146
57.18 117
57.20 138
57.22 115
57.24 105
57.26 97
57.28 101
57.30 80
57.32 101
57.34 92
57.36 87
57.38 81
57.40 74
57.42 78
57.44 62
57.46 79
57.48 76
57.50 63
57.52 58
57.54 64
57.56 54
57.58 65
57.60 69
57.62 80
57.64 59
57.66 47
57.68 59
57.70 55
57.72 67
57.74 41
57.76 73
57.78 60
57.80 64
57.82 60
57.84 52
57.86 53
57.88 48
57.90 49
57.92 49
57.94 49
57.96 47
57.98 66
58.00 53
58.02 57
58.04 54
58.06 50
58.08 42
58.10 38
58.12 41
58.14 59
58.16 39
58.18 41
58.20 36
58.22 48
58.24 46
58.26 49
58.28 48
58.30 41
58.32 37
58.34 49
58.36 41
58.38 45
58.40 43
58.42 48
58.44 39
58.46 49
58.48 38
58.50 33
58.52 46
58.54 38
58.56 57
58.58 34
58.60 43
58.62 51
58.64 34
58.66 49
58.68 41
58.70 49
58.72 46
58.74 34
58.76 54
58.78 39
58.80 47
58.82 37
58.84 41
58.86 45
58.88 47
58.90 36
58.92 48
58.94 39
58.96 54
58.98 45
59.00 37
59.02 39
59.04 43
59.06 40
59.08 40
59.10 42
59.12 56
59.14 41
59.16 42
59.18 42
59.20 38
59.22 41
59.24 40
59.26 52
59.28 39
59.30 35
59.32 46
59.34 43
59.36 36
59.38 46
59.40 35
59.42 39
59.44 42
59.46 49
59.48 43
59.50 54
59.52 45
59.54 33
59.56 43
59.58 28
59.60 61
59.62 40
59.64 55
59.66 43
59.68 37
59.70 35
59.72 39
59.74 46
59.76 53
59.78 45
59.80 48
59.82 50
59.84 51
59.86 30
59.88 45
59.90 34
59.92 52
59.94 47
59.96 46
59.98 39
60.00 28
60.02 46
60.04 35
60.06 38
60.08 46
60.10 50
60.12 46
60.14 50
60.16 41
60.18 50
60.20 30
60.22 41
60.24 46
60.26 37
60.28 52
60.30 51
60.32 35
60.34 36
60.36 46
60.38 38
60.40 36
60.42 48
60.44 49
60.46 37
60.48 36
60.50 48
60.52 41
60.54 57
60.56 49
60.58 53
60.60 49
60.62 42
60.64 53
60.66 55
60.68 64
60.70 36
60.72 36
60.74 38
60.76 44
60.78 63
60.80 39
60.82 46
60.84 49
60.86 50
60.88 43
60.90 42
60.92 51
60.94 42
60.96 60
60.98 63
61.00 53
61.02 51
61.04 52
61.06 48
61.08 60
61.10 42
61.12 48
61.14 43
61.16 50
61.18 61
61.20 48
61.22 54
61.24 54
61.26 49
61.28 63
61.30 49
61.32 61
61.34 53
61.36 55
61.38 49
61.40 59
61.42 50
61.44 58
61.46 54
61.48 58
61.50 43
61.52 61
61.54 60
61.56 55
61.58 63
61.60 54
61.62 61
61.64 65
61.66 61
61.68 46
61.70 56
61.72 54
61.74 63
61.76 75
61.78 50
61.80 54
61.82 62
61.84 66
61.86 65
61.88 91
61.90 62
61.92 68
61.94 73
61.96 72
61.98 71
62.00 83
62.02 79
62.04 87
62.06 79
62.08 78
62.10 73
62.12 72
62.14 98
62.16 103
62.18 91
62.20 101
62.22 101
62.24 84
62.26 104
62.28 115
62.30 121
62.32 126
62.34 122
62.36 147
62.38 177
62.40 159
62.42 200
62.44 201
62.46 196
62.48 244
62.50 311
62.52 326
62.54 354
62.56 420
62.58 452
62.60 534
62.62 625
62.64 720
62.66 837
62.68 979
62.70 1226
62.72 1522
62.74 1991
62.76 2697
62.78 3652
62.80 4709
62.82 5685
62.84 5839
62.86 5345
62.88 4080
62.90 3321
62.92 2688
62.94 2754
62.96 2825
62.98 3129
63.00 3289
63.02 3148
63.04 2655
63.06 2133
63.08 1479
63.10 1079
63.12 849
63.14 705
63.16 611
63.18 487
63.20 414
63.22 353
63.24 314
63.26 288
63.28 273
63.30 214
63.32 202
63.34 194
63.36 171
63.38 169
63.40 126
63.42 141
63.44 131
63.46 139
63.48 125
63.50 130
63.52 106
63.54 104
63.56 120
63.58 90
63.60 105
63.62 89
63.64 91
63.66 98
63.68 78
63.70 88
63.72 78
63.74 66
63.76 63
63.78 71
63.80 67
63.82 70
63.84 70
63.86 56
63.88 50
63.90 60
63.92 81
63.94 69
63.96 71
63.98 60
64.00 52
64.02 68
64.04 58
64.06 56
64.08 66
64.10 58
64.12 63
64.14 59
64.16 60
64.18 61
64.20 72
64.22 61
64.24 56
64.26 59
64.28 51
64.30 51
64.32 42
64.34 49
64.36 52
64.38 47
64.40 38
64.42 63
64.44 48
64.46 52
64.48 54
64.50 53
64.52 60
64.54 46
64.56 59
64.58 44
64.60 45
64.62 48
64.64 58
64.66 66
64.68 52
64.70 56
64.72 52
64.74 56
64.76 57
64.78 49
64.80 45
64.82 39
64.84 65
64.86 41
64.88 41
64.90 55
64.92 41
64.94 51
64.96 52
64.98 36
65.00 50
65.02 52
65.04 74
65.06 56
65.08 55
65.10 42
65.12 45
65.14 60
65.16 50
65.18 46
65.20 61
65.22 40
65.24 57
65.26 48
65.28 62
65.30 48
65.32 46
65.34 40
65.36 65
65.38 45
65.40 48
65.42 47
65.44 37
65.46 50
65.48 56
65.50 59
65.52 52
65.54 48
65.56 51
65.58 66
65.60 52
65.62 65
65.64 51
65.66 67
65.68 50
65.70 61
65.72 47
65.74 64
65.76 68
65.78 76
65.80 60
65.82 62
65.84 74
65.86 77
65.88 69
65.90 64
65.92 68
65.94 74
65.96 73
65.98 90
66.00 95
66.02 85
66.04 104
66.06 102
66.08 117
66.10 103
66.12 139
66.14 146
66.16 154
66.18 188
66.20 246
66.22 292
66.24 299
66.26 466
66.28 548
66.30 672
66.32 905
66.34 961
66.36 955
66.38 836
66.40 684
66.42 528
66.44 503
66.46 405
66.48 502
66.50 517
66.52 545
66.54 535
66.56 512
66.58 419
66.60 301
66.62 280
66.64 214
66.66 195
66.68 184
66.70 154
66.72 97
66.74 139
66.76 115
66.78 107
66.80 100
66.82 88
66.84 99
66.86 93
66.88 88
66.90 80
66.92 88
66.94 91
66.96 86
66.98 79
67.00 85
67.02 96
67.04 96
67.06 90
67.08 99
67.10 82
67.12 82
67.14 95
67.16 78
67.18 96
67.20 108
67.22 96
67.24 121
67.26 113
67.28 112
67.30 108
67.32 143
67.34 109
67.36 123
67.38 130
67.40 135
67.42 131
67.44 151
67.46 168
67.48 188
67.50 180
67.52 238
67.54 255
67.56 241
67.58 272
67.60 324
67.62 350
67.64 361
67.66 429
67.68 466
67.70 505
67.72 637
67.74 715
67.76 802
67.78 1067
67.80 1254
67.82 1560
67.84 2091
67.86 2642
67.88 3413
67.90 4219
67.92 4430
67.94 4269
67.96 3497
67.98 2913
68.00 2359
68.02 2068
68.04 2069
68.06 2176
68.08 2309
68.10 2557
68.12 2420
68.14 2219
68.16 1762
68.18 1463
68.20 1151
68.22 883
68.24 703
68.26 587
68.28 573
68.30 484
68.32 356
68.34 352
68.36 324
68.38 294
68.40 258
68.42 222
68.44 213
68.46 209
68.48 204
68.50 192
68.52 180
68.54 186
68.56 165
68.58 201
68.60 207
68.62 176
68.64 198
68.66 165
68.68 194
68.70 214
68.72 232
68.74 213
68.76 212
68.78 273
68.80 282
68.82 329
68.84 334
68.86 384
68.88 427
68.90 518
68.92 548
68.94 710
68.96 978
68.98 1215
69.00 1519
69.02 2132
69.04 2626
69.06 2876
69.08 2671
69.10 2180
69.12 1750
69.14 1373
69.16 1189
69.18 1199
69.20 1238
69.22 1365
69.24 1534
69.26 1520
69.28 1429
69.30 1070
69.32 889
69.34 710
69.36 530
69.38 383
69.40 365
69.42 284
69.44 287
69.46 247
69.48 213
69.50 214
69.52 182
69.54 150
69.56 151
69.58 126
69.60 122
69.62 103
69.64 112
69.66 99
69.68 93
69.70 83
69.72 79
69.74 89
69.76 98
69.78 97
69.80 86
69.82 65
69.84 76
69.86 56
69.88 75
69.90 58
69.92 62
69.94 57
69.96 58
69.98 62
70.00 59
70.02 52
70.04 47
70.06 61
70.08 68
70.10 48
70.12 56
70.14 57
70.16 50
70.18 52
70.20 54
70.22 41
70.24 49
70.26 42
70.28 48
70.30 38
70.32 38
70.34 45
70.36 41
70.38 43
70.40 43
70.42 44
70.44 57
70.46 46
70.48 38
70.50 41
70.52 39
70.54 43
70.56 44
70.58 41
70.60 50
70.62 44
70.64 40
70.66 45
70.68 41
70.70 39
70.72 35
70.74 42
70.76 56
70.78 42
70.80 33
70.82 51
70.84 42
70.86 45
70.88 29
70.90 39
70.92 40
70.94 58
70.96 37
70.98 38
71.00 32
71.02 42
71.04 44
71.06 46
71.08 44
71.10 32
71.12 37
71.14 30
71.16 35
71.18 36
71.20 57
71.22 32
71.24 34
71.26 44
71.28 47
71.30 32
71.32 33
71.34 28
71.36 28
71.38 33
71.40 38
71.42 36
71.44 31
71.46 34
71.48 32
71.50 35
71.52 34
71.54 39
71.56 41
71.58 38
71.60 40
71.62 34
71.64 38
71.66 32
71.68 35
71.70 46
71.72 47
71.74 45
71.76 38
71.78 42
71.80 42
71.82 40
71.84 38
71.86 33
71.88 36
71.90 33
71.92 39
71.94 48
71.96 47
71.98 46
72.00 43
72.02 46
72.04 33
72.06 48
72.08 36
72.10 33
72.12 58
72.14 37
72.16 57
72.18 46
72.20 61
72.22 42
72.24 65
72.26 56
72.28 48
72.30 55
72.32 60
72.34 73
72.36 90
72.38 111
72.40 104
72.42 121
72.44 150
72.46 167
72.48 200
72.50 294
72.52 293
72.54 383
72.56 366
72.58 343
72.60 248
72.62 206
72.64 170
72.66 180
72.68 168
72.70 150
72.72 204
72.74 237
72.76 234
72.78 190
72.80 152
72.82 114
72.84 76
72.86 97
72.88 73
72.90 71
72.92 64
72.94 67
72.96 58
72.98 57
73.00 49
73.02 50
73.04 41
73.06 41
73.08 39
73.10 38
73.12 51
73.14 44
73.16 39
73.18 25
73.20 43
73.22 41
73.24 46
73.26 31
73.28 40
73.30 46
73.32 36
73.34 32
73.36 47
73.38 41
73.40 26
73.42 30
73.44 22
73.46 33
73.48 25
73.50 39
73.52 44
73.54 33
73.56 41
73.58 42
73.60 35
73.62 34
73.64 33
73.66 38
73.68 40
73.70 31
73.72 32
73.74 40
73.76 24
73.78 31
73.80 29
73.82 37
73.84 38
73.86 32
73.88 32
73.90 26
73.92 33
73.94 28
73.96 29
73.98 34
74.00 26
74.02 29
74.04 36
74.06 34
74.08 25
74.10 30
74.12 27
74.14 29
74.16 34
74.18 27
74.20 29
74.22 24
74.24 33
74.26 23
74.28 36
74.30 30
74.32 29
74.34 20
74.36 28
74.38 24
74.40 33
74.42 25
74.44 28
74.46 51
74.48 32
74.50 36
74.52 33
74.54 26
74.56 31
74.58 27
74.60 22
74.62 28
74.64 34
74.66 38
74.68 32
74.70 33
74.72 35
74.74 30
74.76 26
74.78 33
74.80 28
74.82 30
74.84 21
74.86 35
74.88 35
74.90 23
74.92 20
74.94 21
74.96 33
74.98 29
75.00 35
75.02 29
75.04 32
75.06 34
75.08 29
75.10 35
75.12 24
75.14 35
75.16 36
75.18 27
75.20 46
75.22 33
75.24 31
75.26 30
75.28 20
75.30 36
75.32 28
75.34 35
75.36 36
75.38 26
75.40 21
75.42 26
75.44 32
75.46 30
75.48 21
75.50 24
75.52 25
75.54 35
75.56 24
75.58 27
75.60 37
75.62 33
75.64 34
75.66 39
75.68 27
75.70 25
75.72 21
75.74 23
75.76 27
75.78 33
75.80 46
75.82 34
75.84 29
75.86 23
75.88 26
75.90 32
75.92 33
75.94 37
75.96 40
75.98 31
76.00 36
76.02 30
76.04 31
76.06 31
76.08 31
76.10 38
76.12 36
76.14 42
76.16 36
76.18 43
76.20 36
76.22 44
76.24 42
76.26 39
76.28 31
76.30 48
76.32 51
76.34 28
76.36 39
76.38 48
76.40 50
76.42 40
76.44 48
76.46 58
76.48 44
76.50 52
76.52 54
76.54 66
76.56 53
76.58 75
76.60 81
76.62 69
76.64 75
76.66 103
76.68 111
76.70 104
76.72 118
76.74 168
76.76 156
76.78 166
76.80 213
76.82 242
76.84 299
76.86 413
76.88 504
76.90 626
76.92 809
76.94 786
76.96 725
76.98 562
77.00 489
77.02 378
77.04 347
77.06 310
77.08 322
77.10 360
77.12 384
77.14 449
77.16 450
77.18 419
77.20 348
77.22 283
77.24 239
77.26 170
77.28 150
77.30 109
77.32 112
77.34 86
77.36 102
77.38 61
77.40 80
77.42 65
77.44 62
77.46 72
77.48 57
77.50 43
77.52 41
77.54 64
77.56 49
77.58 34
77.60 46
77.62 36
77.64 38
77.66 34
77.68 44
77.70 38
77.72 38
77.74 35
77.76 41
77.78 40
77.80 29
77.82 31
77.84 30
77.86 41
77.88 25
77.90 32
77.92 35
77.94 27
77.96 27
77.98 27
78.00 33
78.02 26
78.04 27
78.06 26
78.08 36
78.10 29
78.12 28
78.14 37
78.16 23
78.18 35
78.20 29
78.22 34
78.24 34
78.26 36
78.28 31
78.30 29
78.32 32
78.34 27
78.36 24
78.38 22
78.40 27
78.42 27
78.44 36
78.46 29
78.48 36
78.50 28
78.52 20
78.54 24
78.56 25
78.58 27
78.60 34
78.62 25
78.64 31
78.66 27
78.68 24
78.70 35
78.72 24
78.74 30
78.76 27
78.78 21
78.80 27
78.82 26
78.84 26
78.86 28
78.88 32
78.90 29
78.92 20
78.94 20
78.96 36
78.98 28
79.00 26
79.02 32
79.04 25
79.06 35
79.08 33
79.10 26
79.12 30
79.14 22
79.16 31
79.18 35
79.20 24
79.22 36
79.24 25
79.26 26
79.28 33
79.30 25
79.32 30
79.34 24
79.36 26
79.38 25
79.40 32
79.42 25
79.44 24
79.46 30
79.48 30
79.50 29
79.52 32
79.54 24
79.56 33
79.58 20
79.60 28
79.62 26
79.64 28
79.66 20
79.68 21
79.70 36
79.72 26
79.74 33
79.76 27
79.78 31
79.80 28
79.82 21
79.84 25
79.86 27
79.88 28
79.90 39
79.92 15
79.94 19
79.96 31
79.98 27
80.00 27
80.02 27
80.04 26
80.06 28
80.08 24
80.10 24
80.12 33
80.14 31
80.16 20
80.18 35
80.20 28
80.22 21
80.24 32
80.26 30
80.28 29
80.30 30
80.32 23
80.34 30
80.36 28
80.38 27
80.40 35
80.42 20
80.44 22
80.46 22
80.48 34
80.50 21
80.52 29
80.54 40
80.56 27
80.58 25
80.60 29
80.62 37
80.64 31
80.66 34
80.68 30
80.70 25
80.72 35
80.74 31
80.76 24
80.78 40
80.80 42
80.82 36
80.84 31
80.86 35
80.88 40
80.90 38
80.92 48
80.94 39
80.96 51
80.98 41
81.00 53
81.02 42
81.04 60
81.06 49
81.08 61
81.10 71
81.12 75
81.14 61
81.16 73
81.18 74
81.20 83
81.22 117
81.24 116
81.26 150
81.28 181
81.30 237
81.32 311
81.34 353
81.36 475
81.38 433
81.40 424
81.42 340
81.44 262
81.46 216
81.48 173
81.50 155
81.52 177
81.54 180
81.56 213
81.58 244
81.60 257
81.62 297
81.64 267
81.66 201
81.68 145
81.70 130
81.72 100
81.74 97
81.76 84
81.78 78
81.80 63
81.82 43
81.84 51
81.86 52
81.88 45
81.90 48
81.92 42
81.94 33
81.96 38
81.98 45
82.00 40
82.02 30
82.04 29
82.06 37
82.08 39
82.10 31
82.12 41
82.14 24
82.16 24
82.18 23
82.20 35
82.22 38
82.24 30
82.26 22
82.28 24
82.30 27
82.32 29
82.34 27
82.36 35
82.38 30
82.40 26
82.42 30
82.44 26
82.46 30
82.48 35
82.50 23
82.52 36
82.54 25
82.56 21
82.58 31
82.60 17
82.62 39
82.64 26
82.66 32
82.68 18
82.70 28
82.72 30
82.74 38
82.76 28
82.78 36
82.80 27
82.82 24
82.84 28
82.86 26
82.88 26
82.90 23
82.92 28
82.94 26
82.96 23
82.98 29
83.00 27
83.02 25
83.04 27
83.06 17
83.08 30
83.10 34
83.12 35
83.14 21
83.16 40
83.18 30
83.20 21
83.22 21
83.24 33
83.26 29
83.28 34
83.30 21
83.32 31
83.34 23
83.36 22
83.38 24
83.40 16
83.42 22
83.44 21
83.46 33
83.48 29
83.50 29
83.52 27
83.54 29
83.56 35
83.58 26
83.60 27
83.62 28
83.64 35
83.66 28
83.68 27
83.70 20
83.72 21
83.74 26
83.76 38
83.78 26
83.80 34
83.82 23
83.84 35
83.86 28
83.88 28
83.90 22
83.92 35
83.94 24
83.96 31
83.98 32
84.00 35
84.02 27
84.04 37
84.06 24
84.08 35
84.10 23
84.12 32
84.14 23
84.16 27
84.18 23
84.20 29
84.22 32
84.24 17
84.26 34
84.28 15
84.30 27
84.32 28
84.34 29
84.36 29
84.38 30
84.40 18
84.42 23
84.44 38
84.46 26
84.48 34
84.50 32
84.52 25
84.54 20
84.56 28
84.58 24
84.60 27
84.62 27
84.64 28
84.66 32
84.68 32
84.70 34
84.72 28
84.74 23
84.76 29
84.78 34
84.80 24
84.82 30
84.84 32
84.86 26
84.88 30
84.90 22
84.92 22
84.94 31
84.96 29
84.98 32
85.00 29
85.02 26
85.04 27
85.06 26
85.08 34
85.10 36
85.12 27
85.14 17
85.16 27
85.18 19
85.20 29
85.22 27
85.24 27
85.26 25
85.28 32
85.30 20
85.32 20
85.34 22
85.36 33
85.38 24
85.40 18
85.42 35
85.44 21
85.46 22
85.48 29
85.50 29
85.52 26
85.54 26
85.56 21
85.58 21
85.60 20
85.62 28
85.64 34
85.66 20
85.68 23
85.70 27
85.72 34
85.74 34
85.76 29
85.78 19
85.80 28
85.82 20
85.84 22
85.86 23
85.88 39
85.90 29
85.92 30
85.94 32
85.96 21
85.98 32
86.00 32
86.02 21
86.04 22
86.06 24
86.08 26
86.10 25
86.12 32
86.14 28
86.16 22
86.18 22
86.20 21
86.22 24
86.24 23
86.26 39
86.28 25
86.30 28
86.32 25
86.34 29
86.36 22
86.38 26
86.40 17
86.42 31
86.44 33
86.46 24
86.48 28
86.50 25
86.52 16
86.54 32
86.56 25
86.58 29
86.60 33
86.62 35
86.64 22
86.66 33
86.68 15
86.70 36
86.72 34
86.74 24
86.76 29
86.78 27
86.80 38
86.82 24
86.84 31
86.86 28
86.88 31
86.90 30
86.92 36
86.94 24
86.96 27
86.98 35
87.00 29
87.02 34
87.04 26
87.06 27
87.08 31
87.10 25
87.12 28
87.14 25
87.16 33
87.18 34
87.20 33
87.22 25
87.24 28
87.26 28
87.28 25
87.30 38
87.32 28
87.34 34
87.36 33
87.38 35
87.40 21
87.42 30
87.44 31
87.46 29
87.48 35
87.50 35
87.52 23
87.54 29
87.56 33
87.58 34
87.60 43
87.62 25
87.64 33
87.66 40
87.68 35
87.70 32
87.72 28
87.74 28
87.76 40
87.78 27
87.80 27
87.82 34
87.84 42
87.86 36
87.88 35
87.90 30
87.92 28
87.94 36
87.96 28
87.98 22
88.00 33
88.02 33
88.04 32
88.06 35
88.08 40
88.10 35
88.12 31
88.14 33
88.16 37
88.18 43
88.20 31
88.22 40
88.24 37
88.26 24
88.28 35
88.30 45
88.32 39
88.34 39
88.36 36
88.38 38
88.40 29
88.42 37
88.44 42
88.46 32
88.48 49
88.50 41
88.52 28
88.54 52
88.56 37
88.58 28
88.60 34
88.62 52
88.64 36
88.66 46
88.68 43
88.70 29
88.72 48
88.74 60
88.76 40
88.78 42
88.80 55
88.82 41
88.84 56
88.86 44
88.88 57
88.90 45
88.92 53
88.94 56
88.96 70
88.98 59
89.00 76
89.02 88
89.04 72
89.06 88
89.08 88
89.10 80
89.12 96
89.14 103
89.16 99
89.18 111
89.20 120
89.22 127
89.24 124
89.26 132
89.28 136
89.30 132
89.32 169
89.34 223
89.36 219
89.38 249
89.40 288
89.42 299
89.44 371
89.46 449
89.48 528
89.50 661
89.52 842
89.54 1051
89.56 1308
89.58 1523
89.60 1650
89.62 1482
89.64 1198
89.66 913
89.68 817
89.70 665
89.72 543
89.74 528
89.76 530
89.78 526
89.80 547
89.82 633
89.84 714
89.86 856
89.88 861
89.90 828
89.92 687
89.94 573
89.96 455
89.98 342
90.00 276
90.02 244
90.04 204
90.06 204
90.08 174
90.10 155
90.12 154
90.14 129
90.16 122
90.18 128
90.20 97
90.22 99
90.24 81
90.26 79
90.28 83
90.30 84
90.32 76
90.34 66
90.36 60
90.38 66
90.40 75
90.42 70
90.44 57
90.46 59
90.48 50
90.50 58
90.52 61
90.54 54
90.56 58
90.58 44
90.60 44
90.62 43
90.64 44
90.66 49
90.68 49
90.70 48
90.72 48
90.74 52
90.76 34
90.78 36
90.80 47
90.82 40
90.84 39
90.86 37
90.88 39
90.90 47
90.92 42
90.94 46
90.96 42
90.98 44
91.00 45
91.02 43
91.04 46
91.06 43
91.08 38
91.10 33
91.12 43
91.14 33
91.16 36
91.18 37
91.20 35
91.22 36
91.24 45
91.26 46
91.28 46
91.30 34
91.32 38
91.34 38
91.36 48
91.38 25
91.40 40
91.42 36
91.44 41
91.46 34
91.48 32
91.50 41
91.52 41
91.54 40
91.56 35
91.58 51
91.60 46
91.62 44
91.64 38
91.66 43
91.68 49
91.70 47
91.72 32
91.74 39
91.76 46
91.78 42
91.80 40
91.82 51
91.84 33
91.86 34
91.88 43
91.90 51
91.92 44
91.94 41
91.96 38
91.98 52
92.00 35
92.02 58
92.04 37
92.06 42
92.08 36
92.10 38
92.12 44
92.14 48
92.16 51
92.18 57
92.20 54
92.22 58
92.24 51
92.26 62
92.28 54
92.30 55
92.32 68
92.34 62
92.36 56
92.38 68
92.40 77
92.42 90
92.44 76
92.46 74
92.48 75
92.50 110
92.52 113
92.54 114
92.56 108
92.58 140
92.60 154
92.62 181
92.64 212
92.66 222
92.68 313
92.70 390
92.72 476
92.74 615
92.76 663
92.78 671
92.80 600
92.82 494
92.84 409
92.86 342
92.88 269
92.90 265
92.92 241
92.94 240
92.96 227
92.98 241
93.00 257
93.02 297
93.04 333
93.06 378
93.08 361
93.10 344
93.12 289
93.14 226
93.16 204
93.18 171
93.20 144
93.22 135
93.24 107
93.26 98
93.28 99
93.30 71
93.32 76
93.34 79
93.36 80
93.38 59
93.40 46
93.42 52
93.44 49
93.46 73
93.48 55
93.50 64
93.52 59
93.54 63
93.56 51
93.58 53
93.60 57
93.62 49
93.64 53
93.66 53
93.68 58
93.70 52
93.72 40
93.74 43
93.76 51
93.78 61
93.80 58
93.82 45
93.84 48
93.86 52
93.88 46
93.90 52
93.92 49
93.94 40
93.96 45
93.98 43
94.00 53
94.02 59
94.04 60
94.06 51
94.08 37
94.10 61
94.12 53
94.14 40
94.16 50
94.18 51
94.20 43
94.22 41
94.24 45
94.26 45
94.28 49
94.30 50
94.32 43
94.34 60
94.36 48
94.38 49
94.40 61
94.42 61
94.44 74
94.46 66
94.48 68
94.50 57
94.52 53
94.54 61
94.56 74
94.58 61
94.60 86
94.62 83
94.64 64
94.66 89
94.68 75
94.70 90
94.72 77
94.74 98
94.76 85
94.78 98
94.80 108
94.82 93
94.84 117
94.86 121
94.88 131
94.90 138
94.92 170
94.94 154
94.96 149
94.98 178
95.00 203
95.02 223
95.04 215
95.06 268
95.08 304
95.10 340
95.12 414
95.14 465
95.16 544
95.18 717
95.20 858
95.22 1061
95.24 1284
95.26 1478
95.28 1616
95.30 1540
95.32 1311
95.34 1116
95.36 945
95.38 782
95.40 691
95.42 613
95.44 566
95.46 519
95.48 547
95.50 618
95.52 644
95.54 717
95.56 838
95.58 935
95.60 936
95.62 873
95.64 753
95.66 605
95.68 473
95.70 419
95.72 370
95.74 296
95.76 266
95.78 228
95.80 227
95.82 204
95.84 179
95.86 152
95.88 168
95.90 120
95.92 126
95.94 113
95.96 104
95.98 95
96.00 82
96.02 100
96.04 93
96.06 92
96.08 91
96.10 86
96.12 63
96.14 65
96.16 84
96.18 76
96.20 63
96.22 59
96.24 63
96.26 56
96.28 72
96.30 49
96.32 59
96.34 52
96.36 70
96.38 63
96.40 55
96.42 49
96.44 63
96.46 57
96.48 59
96.50 53
96.52 46
96.54 46
96.56 61
96.58 54
96.60 52
96.62 49
96.64 48
96.66 55
96.68 55
96.70 54
96.72 42
96.74 51
96.76 48
96.78 51
96.80 53
96.82 46
96.84 38
96.86 48
96.88 40
96.90 42
96.92 35
96.94 37
96.96 34
96.98 46
97.00 35
97.02 50
97.04 47
97.06 58
97.08 45
97.10 52
97.12 43
97.14 34
97.16 41
97.18 45
97.20 45
97.22 41
97.24 54
97.26 42
97.28 50
97.30 39
97.32 42
97.34 33
97.36 44
97.38 45
97.40 37
97.42 39
97.44 53
97.46 49
97.48 44
97.50 39
97.52 42
97.54 53
97.56 37
97.58 53
97.60 52
97.62 45
97.64 40
97.66 51
97.68 43
97.70 33
97.72 57
97.74 47
97.76 58
97.78 42
97.80 38
97.82 58
97.84 66
97.86 59
97.88 53
97.90 50
97.92 60
97.94 49
97.96 60
97.98 61
98.00 74
98.02 59
98.04 67
98.06 84
98.08 60
98.10 68
98.12 71
98.14 70
98.16 80
98.18 87
98.20 107
98.22 88
98.24 102
98.26 119
98.28 104
98.30 120
98.32 133
98.34 157
98.36 142
98.38 181
98.40 173
98.42 205
98.44 203
98.46 301
98.48 301
98.50 353
98.52 445
98.54 543
98.56 691
98.58 744
98.60 818
98.62 788
98.64 673
98.66 578
98.68 473
98.70 423
98.72 333
98.74 377
98.76 295
98.78 269
98.80 311
98.82 296
98.84 293
98.86 335
98.88 381
98.90 418
98.92 470
98.94 447
98.96 401
98.98 384
99.00 308
99.02 258
99.04 232
99.06 166
99.08 165
99.10 142
99.12 149
99.14 97
99.16 118
99.18 123
99.20 91
99.22 100
99.24 69
99.26 91
99.28 74
99.30 80
99.32 64
99.34 68
99.36 99
99.38 47
99.40 59
99.42 53
99.44 54
99.46 60
99.48 67
99.50 56
99.52 52
99.54 48
99.56 50
99.58 57
99.60 54
99.62 62
99.64 44
99.66 47
99.68 52
99.70 45
99.72 50
99.74 44
99.76 47
99.78 52
99.80 49
99.82 37
99.84 40
99.86 55
99.88 37
99.90 49
99.92 44
99.94 44
99.96 34
99.98 40
100.00 39
100.02 39
100.04 43
100.06 45
100.08 41
100.10 43
100.12 42
100.14 38
100.16 46
100.18 49
100.20 41
100.22 39
100.24 37
100.26 45
100.28 43
100.30 44
100.32 41
100.34 45
100.36 30
100.38 44
100.40 36
100.42 26
100.44 49
100.46 43
100.48 34
100.50 37
100.52 41
100.54 36
100.56 48
100.58 36
100.60 32
100.62 33
100.64 33
100.66 29
100.68 54
100.70 43
100.72 47
100.74 28
100.76 44
100.78 32
100.80 37
100.82 39
100.84 43
100.86 38
100.88 38
100.90 32
100.92 43
100.94 42
100.96 45
100.98 31
101.00 39
101.02 38
101.04 42
101.06 29
101.08 36
101.10 49
101.12 37
101.14 41
101.16 47
101.18 42
101.20 28
101.22 39
101.24 41
101.26 46
101.28 47
101.30 40
101.32 28
101.34 40
101.36 38
101.38 50
101.40 39
101.42 50
101.44 50
101.46 42
101.48 35
101.50 48
101.52 44
101.54 45
101.56 38
101.58 47
101.60 33
101.62 47
101.64 38
101.66 43
101.68 24
101.70 34
101.72 42
101.74 45
101.76 49
101.78 51
101.80 44
101.82 45
101.84 33
101.86 44
101.88 45
101.90 46
101.92 50
101.94 61
101.96 46
101.98 44
102.00 43
102.02 50
102.04 46
102.06 46
102.08 39
102.10 63
102.12 39
102.14 61
102.16 45
102.18 56
102.20 48
102.22 61
102.24 64
102.26 51
102.28 68
102.30 75
102.32 71
102.34 66
102.36 52
102.38 59
102.40 88
102.42 63
102.44 78
102.46 90
102.48 85
102.50 83
102.52 77
102.54 79
102.56 84
102.58 82
102.60 97
102.62 118
102.64 122
102.66 138
102.68 136
102.70 156
102.72 157
102.74 188
102.76 211
102.78 230
102.80 277
102.82 338
102.84 406
102.86 449
102.88 520
102.90 560
102.92 611
102.94 576
102.96 482
102.98 401
103.00 336
103.02 351
103.04 260
103.06 249
103.08 245
103.10 230
103.12 207
103.14 238
103.16 237
103.18 273
103.20 267
103.22 297
103.24 320
103.26 380
103.28 345
103.30 330
103.32 305
103.34 244
103.36 213
103.38 188
103.40 210
103.42 170
103.44 163
103.46 167
103.48 150
103.50 120
103.52 130
103.54 131
103.56 128
103.58 118
103.60 111
103.62 110
103.64 111
103.66 124
103.68 111
103.70 104
103.72 140
103.74 149
103.76 135
103.78 170
103.80 156
103.82 169
103.84 209
103.86 220
103.88 237
103.90 229
103.92 249
103.94 339
103.96 351
103.98 402
104.00 466
104.02 591
104.04 757
104.06 917
104.08 1134
104.10 1290
104.12 1271
104.14 1167
104.16 1054
104.18 843
104.20 687
104.22 601
104.24 471
104.26 449
104.28 399
104.30 340
104.32 374
104.34 376
104.36 377
104.38 396
104.40 441
104.42 478
104.44 576
104.46 645
104.48 721
104.50 667
104.52 589
104.54 457
104.56 414
104.58 382
104.60 319
104.62 263
104.64 230
104.66 176
104.68 210
104.70 138
104.72 143
104.74 123
104.76 132
104.78 136
104.80 114
104.82 103
104.84 102
104.86 77
104.88 86
104.90 75
104.92 78
104.94 84
104.96 70
104.98 87
105.00 75
105.02 76
105.04 52
105.06 56
105.08 59
105.10 67
105.12 50
105.14 62
105.16 65
105.18 71
105.20 55
105.22 64
105.24 61
105.26 64
105.28 53
105.30 47
105.32 66
105.34 53
105.36 58
105.38 44
105.40 45
105.42 56
105.44 58
105.46 38
105.48 41
105.50 45
105.52 48
105.54 50
105.56 54
105.58 51
105.60 53
105.62 40
105.64 48
105.66 53
105.68 49
105.70 40
105.72 46
105.74 47
105.76 46
105.78 41
105.80 49
105.82 50
105.84 37
105.86 31
105.88 43
105.90 35
105.92 42
105.94 46
105.96 60
105.98 42
106.00 43
106.02 35
106.04 43
106.06 37
106.08 46
106.10 27
106.12 48
106.14 39
106.16 35
106.18 37
106.20 41
106.22 39
106.24 41
106.26 26
106.28 34
106.30 43
106.32 30
106.34 37
106.36 43
106.38 43
106.40 44
106.42 42
106.44 48
106.46 43
106.48 48
106.50 29
106.52 43
106.54 40
106.56 43
106.58 38
106.60 43
106.62 39
106.64 39
106.66 41
106.68 33
106.70 42
106.72 50
106.74 46
106.76 44
106.78 39
106.80 53
106.82 41
106.84 35
106.86 45
106.88 42
106.90 54
106.92 38
106.94 57
106.96 50
106.98 53
107.00 61
107.02 35
107.04 52
107.06 55
107.08 42
107.10 47
107.12 49
107.14 59
107.16 66
107.18 60
107.20 63
107.22 66
107.24 52
107.26 83
107.28 85
107.30 99
107.32 126
107.34 107
107.36 129
107.38 145
107.40 152
107.42 178
107.44 174
107.46 138
107.48 127
107.50 125
107.52 105
107.54 114
107.56 84
107.58 100
107.60 90
107.62 84
107.64 82
107.66 73
107.68 68
107.70 85
107.72 88
107.74 105
107.76 127
107.78 101
107.80 103
107.82 113
107.84 104
107.86 108
107.88 92
107.90 76
107.92 71
107.94 76
107.96 51
107.98 73
108.00 63
108.02 65
108.04 41
108.06 51
108.08 54
108.10 54
108.12 61
108.14 51
108.16 31
108.18 44
108.20 46
108.22 47
108.24 37
108.26 48
108.28 46
108.30 36
108.32 51
108.34 43
108.36 35
108.38 48
108.40 46
108.42 39
108.44 38
108.46 34
108.48 42
108.50 46
108.52 40
108.54 45
108.56 52
108.58 52
108.60 37
108.62 36
108.64 34
108.66 53
108.68 32
108.70 42
108.72 40
108.74 46
108.76 40
108.78 45
108.80 35
108.82 50
108.84 47
108.86 56
108.88 50
108.90 41
108.92 36
108.94 36
108.96 45
108.98 46
109.00 40
109.02 36
109.04 44
109.06 44
109.08 38
109.10 38
109.12 48
109.14 38
109.16 40
109.18 40
109.20 49
109.22 45
109.24 40
109.26 51
109.28 42
109.30 32
109.32 42
109.34 41
109.36 46
109.38 44
109.40 44
109.42 40
109.44 34
109.46 40
109.48 48
109.50 53
109.52 53
109.54 66
109.56 54
109.58 60
109.60 63
109.62 50
109.64 60
109.66 56
109.68 61
109.70 56
109.72 62
109.74 61
109.76 73
109.78 67
109.80 64
109.82 77
109.84 68
109.86 70
109.88 74
109.90 80
109.92 82
109.94 68
109.96 86
109.98 107
110.00 110
110.02 109
110.04 96
110.06 117
110.08 140
110.10 170
110.12 150
110.14 166
110.16 177
110.18 210
110.20 223
110.22 269
110.24 302
110.26 328
110.28 402
110.30 420
110.32 496
110.34 521
110.36 568
110.38 544
110.40 552
110.42 506
110.44 431
110.46 446
110.48 336
110.50 270
110.52 269
110.54 258
110.56 248
110.58 224
110.60 221
110.62 213
110.64 225
110.66 230
110.68 212
110.70 285
110.72 266
110.74 287
110.76 305
110.78 314
110.80 356
110.82 299
110.84 255
110.86 222
110.88 198
110.90 191
110.92 176
110.94 137
110.96 141
110.98 129
111.00 120
111.02 109
111.04 99
111.06 104
111.08 95
111.10 76
111.12 69
111.14 85
111.16 77
111.18 66
111.20 78
111.22 66
111.24 67
111.26 53
111.28 62
111.30 68
111.32 56
111.34 69
111.36 47
111.38 53
111.40 58
111.42 49
111.44 43
111.46 52
111.48 60
111.50 47
111.52 48
111.54 44
111.56 47
111.58 42
111.60 47
111.62 38
111.64 45
111.66 47
111.68 42
111.70 45
111.72 52
111.74 43
111.76 47
111.78 38
111.80 39
111.82 34
111.84 46
111.86 43
111.88 45
111.90 44
111.92 37
111.94 48
111.96 54
111.98 46
112.00 45
112.02 39
112.04 40
112.06 41
112.08 43
112.10 49
112.12 38
112.14 41
112.16 40
112.18 36
112.20 49
112.22 32
112.24 44
112.26 42
112.28 44
112.30 45
112.32 45
112.34 35
112.36 35
112.38 43
112.40 41
112.42 56
112.44 35
112.46 42
112.48 47
112.50 40
112.52 41
112.54 48
112.56 50
112.58 44
112.60 41
112.62 38
112.64 49
112.66 39
112.68 40
112.70 38
112.72 42
112.74 39
112.76 33
112.78 45
112.80 44
112.82 38
112.84 42
112.86 45
112.88 42
112.90 33
112.92 23
112.94 46
112.96 54
112.98 40
113.00 47
113.02 35
113.04 30
113.06 33
113.08 46
113.10 46
113.12 34
113.14 37
113.16 52
113.18 29
113.20 43
113.22 53
113.24 48
113.26 36
113.28 45
113.30 38
113.32 41
113.34 38
113.36 45
113.38 49
113.40 39
113.42 38
113.44 34
113.46 43
113.48 35
113.50 46
113.52 43
113.54 41
113.56 37
113.58 29
113.60 30
113.62 49
113.64 43
113.66 40
113.68 40
113.70 38
113.72 41
113.74 36
113.76 40
113.78 41
113.80 40
113.82 37
113.84 33
113.86 48
113.88 40
113.90 35
113.92 39
113.94 37
113.96 41
113.98 30
114.00 54
114.02 32
114.04 40
114.06 41
114.08 44
114.10 50
114.12 29
114.14 35
114.16 54
114.18 40
114.20 59
114.22 44
114.24 55
114.26 54
114.28 43
114.30 38
114.32 45
114.34 48
114.36 44
114.38 47
114.40 42
114.42 48
114.44 46
114.46 38
114.48 44
114.50 47
114.52 47
114.54 63
114.56 61
114.58 39
114.60 49
114.62 49
114.64 48
114.66 49
114.68 56
114.70 48
114.72 33
114.74 52
114.76 52
114.78 54
114.80 54
114.82 44
114.84 48
114.86 43
114.88 48
114.90 46
114.92 64
114.94 61
114.96 56
114.98 50
115.00 59
115.02 60
115.04 55
115.06 61
115.08 64
115.10 61
115.12 52
115.14 56
115.16 51
115.18 56
115.20 64
115.22 63
115.24 67
115.26 70
115.28 63
115.30 65
115.32 66
115.34 75
115.36 64
115.38 73
115.40 68
115.42 68
115.44 78
115.46 78
115.48 77
115.50 79
115.52 88
115.54 97
115.56 57
115.58 101
115.60 114
115.62 78
115.64 106
115.66 119
115.68 123
115.70 107
115.72 112
115.74 123
115.76 146
115.78 137
115.80 139
115.82 160
115.84 172
115.86 184
115.88 216
115.90 204
115.92 201
115.94 243
115.96 240
115.98 265
116.00 318
116.02 321
116.04 384
116.06 390
116.08 421
116.10 457
116.12 553
116.14 652
116.16 774
116.18 785
116.20 961
116.22 1055
116.24 1170
116.26 1175
116.28 1101
116.30 1059
116.32 980
116.34 831
116.36 726
116.38 729
116.40 614
116.42 595
116.44 542
116.46 472
116.48 511
116.50 445
116.52 449
116.54 444
116.56 466
116.58 464
116.60 484
116.62 510
116.64 555
116.66 555
116.68 631
116.70 649
116.72 611
116.74 634
116.76 614
116.78 544
116.80 475
116.82 450
116.84 408
116.86 337
116.88 277
116.90 285
116.92 254
116.94 243
116.96 211
116.98 210
117.00 210
117.02 153
117.04 162
117.06 154
117.08 134
117.10 110
117.12 117
117.14 138
117.16 135
117.18 127
117.20 124
117.22 95
117.24 84
117.26 100
117.28 105
117.30 92
117.32 83
117.34 99
117.36 74
117.38 87
117.40 88
117.42 71
117.44 73
117.46 80
117.48 72
117.50 94
117.52 54
117.54 58
117.56 69
117.58 70
117.60 59
117.62 64
117.64 62
117.66 59
117.68 58
117.70 53
117.72 52
117.74 68
117.76 42
117.78 49
117.80 46
117.82 48
117.84 64
117.86 49
117.88 52
117.90 46
117.92 55
117.94 38
117.96 49
117.98 57
118.00 58
118.02 51
118.04 46
118.06 57
118.08 60
118.10 41
118.12 52
118.14 60
118.16 44
118.18 61
118.20 40
118.22 64
118.24 44
118.26 52
118.28 57
118.30 44
118.32 52
118.34 56
118.36 51
118.38 49
118.40 37
118.42 46
118.44 41
118.46 45
118.48 44
118.50 61
118.52 46
118.54 66
118.56 47
118.58 31
118.60 40
118.62 57
118.64 49
118.66 51
118.68 34
118.70 52
118.72 44
118.74 49
118.76 62
118.78 40
118.80 43
118.82 41
118.84 49
118.86 46
118.88 49
118.90 38
118.92 43
118.94 35
118.96 44
118.98 46
119.00 46
119.02 49
119.04 53
119.06 36
119.08 46
119.10 48
119.12 46
119.14 43
119.16 46
119.18 38
119.20 40
119.22 41
119.24 37
119.26 51
119.28 51
119.30 33
119.32 38
119.34 53
119.36 45
119.38 44
119.40 38
119.42 50
119.44 43
119.46 46
119.48 35
119.50 43
119.52 46
119.54 45
119.56 45
119.58 44
119.60 48
119.62 46
119.64 32
119.66 45
119.68 53
119.70 52
119.72 45
119.74 40
119.76 32
119.78 49
119.80 44
119.82 47
119.84 37
119.86 41
119.88 42
119.90 42
119.92 41
119.94 41
119.96 35
119.98 33
120.00 45
120.02 51
120.04 42
120.06 48
120.08 42
120.10 39
120.12 42
120.14 50
120.16 52
120.18 47
120.20 55
120.22 53
120.24 57
120.26 46
120.28 42
120.30 47
120.32 53
120.34 50
120.36 49
120.38 54
120.40 51
120.42 65
120.44 60
120.46 81
120.48 47
120.50 61
120.52 45
120.54 43
120.56 47
120.58 52
120.60 74
120.62 46
120.64 54
120.66 44
120.68 70
120.70 62
120.72 60
120.74 73
120.76 68
120.78 72
120.80 71
120.82 68
120.84 74
120.86 77
120.88 73
120.90 82
120.92 92
120.94 79
120.96 82
120.98 90
121.00 77
121.02 104
121.04 90
121.06 87
121.08 74
121.10 99
121.12 101
121.14 119
121.16 122
121.18 130
121.20 135
121.22 163
121.24 150
121.26 151
121.28 189
121.30 165
121.32 232
121.34 262
121.36 250
121.38 296
121.40 307
121.42 364
121.44 410
121.46 451
121.48 524
121.50 572
121.52 699
121.54 752
121.56 695
121.58 640
121.60 640
121.62 558
121.64 492
121.66 484
121.68 379
121.70 343
121.72 328
121.74 283
121.76 303
121.78 295
121.80 251
121.82 251
121.84 246
121.86 258
121.88 241
121.90 232
121.92 258
121.94 280
121.96 301
121.98 352
122.00 343
122.02 356
122.04 353
122.06 403
122.08 384
122.10 386
122.12 342
122.14 319
122.16 273
122.18 243
122.20 219
122.22 201
122.24 183
122.26 180
122.28 162
122.30 139
122.32 144
122.34 118
122.36 133
122.38 119
122.40 118
122.42 81
122.44 77
122.46 107
122.48 78
122.50 86
122.52 73
122.54 85
122.56 74
122.58 67
122.60 83
122.62 86
122.64 66
122.66 79
122.68 63
122.70 65
122.72 66
122.74 74
122.76 65
122.78 57
122.80 58
122.82 73
122.84 60
122.86 46
122.88 46
122.90 52
122.92 55
122.94 57
122.96 52
122.98 48
123.00 49
123.02 44
123.04 48
123.06 37
123.08 56
123.10 57
123.12 48
123.14 42
123.16 53
123.18 53
123.20 48
123.22 53
123.24 46
123.26 60
123.28 45
123.30 47
123.32 42
123.34 37
123.36 44
123.38 56
123.40 58
123.42 49
123.44 55
123.46 28
123.48 51
123.50 41
123.52 47
123.54 51
123.56 51
123.58 43
123.60 37
123.62 44
123.64 45
123.66 36
123.68 50
123.70 50
123.72 39
123.74 40
123.76 40
123.78 47
123.80 49
123.82 47
123.84 44
123.86 40
123.88 40
123.90 46
123.92 44
123.94 32
123.96 38
123.98 44
124.00 31
124.02 40
124.04 36
124.06 45
124.08 30
124.10 42
124.12 45
124.14 51
124.16 37
124.18 37
124.20 47
124.22 35
124.24 39
124.26 40
124.28 42
124.30 36
124.32 43
124.34 43
124.36 45
124.38 53
124.40 53
124.42 54
124.44 51
124.46 41
124.48 33
124.50 39
124.52 44
124.54 45
124.56 47
124.58 45
124.60 60
124.62 38
124.64 48
124.66 39
124.68 44
124.70 44
124.72 35
124.74 50
124.76 48
124.78 55
124.80 46
124.82 54
124.84 46
124.86 44
124.88 42
124.90 66
124.92 72
124.94 87
124.96 71
124.98 65
125.00 68
