26 172
26.02 162
26.04 172
26.06 151
26.08 169
26.10 165
26.12 181
26.14 153
26.16 185
26.18 167
26.20 169
26.22 166
26.24 167
26.26 166
26.28 173
26.30 186
26.32 210
26.34 204
26.36 190
26.38 193
26.40 213
26.42 202
26.44 179
26.46 176
26.48 162
26.50 193
26.52 136
26.54 143
26.56 140
26.58 142
26.60 128
26.62 135
26.64 141
26.66 113
26.68 131
26.70 122
26.72 129
26.74 110
26.76 104
26.78 130
26.80 128
26.82 136
26.84 125
26.86 131
26.88 103
26.90 144
26.92 125
26.94 128
26.96 129
26.98 120
27.00 125
27.02 116
27.04 115
27.06 110
27.08 126
27.10 111
27.12 110
27.14 134
27.16 124
27.18 125
27.20 125
27.22 134
27.24 120
27.26 130
27.28 113
27.30 116
27.32 119
27.34 115
27.36 113
27.38 131
27.40 134
27.42 122
27.44 116
27.46 164
27.48 172
27.50 163
27.52 154
27.54 169
27.56 149
27.58 189
27.60 176
27.62 168
27.64 210
27.66 228
27.68 268
27.70 245
27.72 280
27.74 319
27.76 346
27.78 361
27.80 371
27.82 390
27.84 358
27.86 371
27.88 295
27.90 302
27.92 285
27.94 250
27.96 250
27.98 214
28.00 216
28.02 205
28.04 175
28.06 184
28.08 191
28.10 176
28.12 168
28.14 165
28.16 155
28.18 127
28.20 161
28.22 150
28.24 128
28.26 138
28.28 125
28.30 147
28.32 143
28.34 144
28.36 118
28.38 143
28.40 148
28.42 134
28.44 121
28.46 141
28.48 136
28.50 134
28.52 117
28.54 136
28.56 157
28.58 125
28.60 152
28.62 139
28.64 120
28.66 133
28.68 121
28.70 156
28.72 133
28.74 126
28.76 130
28.78 136
28.80 131
28.82 136
28.84 111
28.86 123
28.88 125
28.90 120
28.92 138
28.94 114
28.96 128
28.98 129
29.00 145
29.02 138
29.04 140
29.06 133
29.08 118
29.10 140
29.12 133
29.14 122
29.16 137
29.18 128
29.20 149
29.22 149
29.24 125
29.26 124
29.28 153
29.30 131
29.32 126
29.34 112
29.36 120
29.38 133
29.40 147
29.42 140
29.44 152
29.46 149
29.48 127
29.50 143
29.52 126
29.54 117
29.56 137
29.58 143
29.60 143
29.62 108
29.64 127
29.66 138
29.68 145
29.70 153
29.72 143
29.74 152
29.76 144
29.78 164
29.80 136
29.82 157
29.84 171
29.86 159
29.88 133
29.90 157
29.92 155
29.94 147
29.96 166
29.98 160
30.00 159
30.02 169
30.04 185
30.06 144
30.08 170
30.10 166
30.12 159
30.14 175
30.16 166
30.18 160
30.20 195
30.22 186
30.24 186
30.26 188
30.28 196
30.30 185
30.32 171
30.34 179
30.36 182
30.38 190
30.40 196
30.42 216
30.44 207
30.46 236
30.48 225
30.50 230
30.52 227
30.54 240
30.56 278
30.58 250
30.60 253
30.62 287
30.64 325
30.66 362
30.68 338
30.70 444
30.72 445
30.74 474
30.76 534
30.78 539
30.80 600
30.82 625
30.84 597
30.86 604
30.88 595
30.90 514
30.92 503
30.94 511
30.96 503
30.98 448
31.00 437
31.02 389
31.04 408
31.06 379
31.08 380
31.10 385
31.12 375
31.14 410
31.16 379
31.18 363
31.20 384
31.22 399
31.24 422
31.26 404
31.28 451
31.30 498
31.32 477
31.34 562
31.36 608
31.38 672
31.40 726
31.42 751
31.44 828
31.46 915
31.48 1091
31.50 1143
31.52 1306
31.54 1528
31.56 1783
31.58 2014
31.60 2342
31.62 2704
31.64 3113
31.66 3457
31.68 4065
31.70 4506
31.72 5132
31.74 5466
31.76 5644
31.78 5579
31.80 5513
31.82 5122
31.84 4709
31.86 4245
31.88 3766
31.90 3247
31.92 2690
31.94 2328
31.96 1849
31.98 1745
32.00 1459
32.02 1281
32.04 1146
32.06 1009
32.08 846
32.10 832
32.12 770
32.14 691
32.16 614
32.18 608
32.20 557
32.22 508
32.24 503
32.26 507
32.28 482
32.30 487
32.32 434
32.34 465
32.36 423
32.38 478
32.40 416
32.42 440
32.44 453
32.46 479
32.48 443
32.50 520
32.52 453
32.54 500
32.56 495
32.58 498
32.60 474
32.62 560
32.64 550
32.66 496
32.68 474
32.70 500
32.72 475
32.74 452
32.76 481
32.78 464
32.80 489
32.82 469
32.84 467
32.86 425
32.88 438
32.90 525
32.92 462
32.94 438
32.96 490
32.98 478
33.00 536
33.02 512
33.04 559
33.06 531
33.08 571
33.10 623
33.12 604
33.14 588
33.16 627
33.18 659
33.20 653
33.22 647
33.24 685
33.26 707
33.28 746
33.30 758
33.32 724
33.34 760
33.36 740
33.38 778
33.40 751
33.42 720
33.44 703
33.46 675
33.48 633
33.50 530
33.52 502
33.54 467
33.56 459
33.58 483
33.60 454
33.62 423
33.64 376
33.66 375
33.68 373
33.70 384
33.72 345
33.74 360
33.76 354
33.78 380
33.80 387
33.82 350
33.84 403
33.86 402
33.88 346
33.90 384
33.92 384
33.94 388
33.96 459
33.98 437
34.00 507
34.02 487
34.04 499
34.06 561
34.08 611
34.10 643
34.12 687
34.14 746
34.16 874
34.18 977
34.20 1120
34.22 1231
34.24 1456
34.26 1722
34.28 2075
34.30 2567
34.32 3020
34.34 3620
34.36 4423
34.38 5400
34.40 6144
34.42 6604
34.44 6286
34.46 5877
34.48 5261
34.50 4721
34.52 4170
34.54 3518
34.56 2796
34.58 2134
34.60 1755
34.62 1425
34.64 1215
34.66 1047
34.68 898
34.70 764
34.72 724
34.74 635
34.76 614
34.78 611
34.80 545
34.82 491
34.84 497
34.86 453
34.88 421
34.90 392
34.92 454
34.94 470
34.96 432
34.98 424
35.00 473
35.02 425
35.04 438
35.06 432
35.08 438
35.10 435
35.12 474
35.14 464
35.16 480
35.18 467
35.20 512
35.22 483
35.24 512
35.26 499
35.28 522
35.30 486
35.32 563
35.34 545
35.36 567
35.38 573
35.40 531
35.42 501
35.44 557
35.46 519
35.48 544
35.50 519
35.52 563
35.54 555
35.56 561
35.58 537
35.60 588
35.62 621
35.64 688
35.66 717
35.68 707
35.70 706
35.72 767
35.74 809
35.76 836
35.78 918
35.80 956
35.82 915
35.84 1067
35.86 1212
35.88 1314
35.90 1368
35.92 1465
35.94 1590
35.96 1851
35.98 2025
36.00 2324
36.02 2579
36.04 2954
36.06 3166
36.08 3696
36.10 4243
36.12 4921
36.14 5624
36.16 6351
36.18 7324
36.20 8118
36.22 8966
36.24 9030
36.26 9257
36.28 9092
36.30 8799
36.32 8025
36.34 7295
36.36 6631
36.38 5977
36.40 5094
36.42 4542
36.44 3852
36.46 3263
36.48 2843
36.50 2382
36.52 2102
36.54 1888
36.56 1695
36.58 1444
36.60 1321
36.62 1169
36.64 1066
36.66 998
36.68 893
36.70 794
36.72 731
36.74 687
36.76 633
36.78 684
36.80 594
36.82 541
36.84 536
36.86 477
36.88 486
36.90 437
36.92 455
36.94 445
36.96 394
36.98 364
37.00 398
37.02 334
37.04 359
37.06 370
37.08 320
37.10 323
37.12 337
37.14 310
37.16 333
37.18 298
37.20 268
37.22 286
37.24 273
37.26 289
37.28 259
37.30 234
37.32 250
37.34 276
37.36 243
37.38 260
37.40 254
37.42 222
37.44 224
37.46 203
37.48 208
37.50 212
37.52 222
37.54 246
37.56 236
37.58 208
37.60 214
37.62 200
37.64 215
37.66 209
37.68 193
37.70 180
37.72 208
37.74 205
37.76 194
37.78 192
37.80 210
37.82 196
37.84 177
37.86 203
37.88 181
37.90 188
37.92 181
37.94 197
37.96 184
37.98 172
38.00 163
38.02 191
38.04 177
38.06 196
38.08 170
38.10 189
38.12 189
38.14 195
38.16 210
38.18 208
38.20 193
38.22 197
38.24 185
38.26 204
38.28 198
38.30 188
38.32 198
38.34 212
38.36 207
38.38 197
38.40 216
38.42 197
38.44 220
38.46 243
38.48 241
38.50 262
38.52 227
38.54 247
38.56 272
38.58 259
38.60 296
38.62 311
38.64 261
38.66 298
38.68 272
38.70 284
38.72 324
38.74 270
38.76 279
38.78 275
38.80 220
38.82 237
38.84 221
38.86 220
38.88 242
38.90 225
38.92 199
38.94 201
38.96 201
38.98 231
39.00 182
39.02 196
39.04 208
39.06 193
39.08 187
39.10 176
39.12 168
39.14 172
39.16 174
39.18 157
39.20 173
39.22 153
39.24 170
39.26 150
39.28 131
39.30 151
39.32 148
39.34 131
39.36 139
39.38 148
39.40 134
39.42 168
39.44 144
39.46 139
39.48 120
39.50 126
39.52 114
39.54 135
39.56 120
39.58 141
39.60 117
39.62 117
39.64 111
39.66 134
39.68 122
39.70 127
39.72 98
39.74 126
39.76 115
39.78 106
39.80 131
39.82 105
39.84 136
39.86 137
39.88 127
39.90 112
39.92 122
39.94 123
39.96 126
39.98 122
40.00 120
40.02 103
40.04 116
40.06 115
40.08 106
40.10 131
40.12 123
40.14 125
40.16 98
40.18 97
40.20 109
40.22 85
40.24 103
40.26 108
40.28 108
40.30 85
40.32 99
40.34 100
40.36 117
40.38 101
40.40 104
40.42 100
40.44 98
40.46 112
40.48 80
40.50 109
40.52 99
40.54 99
40.56 98
40.58 104
40.60 89
40.62 101
40.64 92
40.66 114
40.68 99
40.70 125
40.72 98
40.74 100
40.76 101
40.78 91
40.80 117
40.82 96
40.84 95
40.86 100
40.88 100
40.90 99
40.92 117
40.94 119
40.96 104
40.98 105
41.00 96
41.02 117
41.04 127
41.06 108
41.08 95
41.10 131
41.12 132
41.14 116
41.16 112
41.18 106
41.20 113
41.22 115
41.24 121
41.26 119
41.28 109
41.30 118
41.32 156
41.34 155
41.36 167
41.38 141
41.40 134
41.42 132
41.44 144
41.46 136
41.48 130
41.50 138
41.52 188
41.54 148
41.56 188
41.58 183
41.60 189
41.62 202
41.64 156
41.66 168
41.68 176
41.70 184
41.72 167
41.74 169
41.76 159
41.78 155
41.80 155
41.82 121
41.84 154
41.86 124
41.88 138
41.90 150
41.92 160
41.94 151
41.96 151
41.98 119
42.00 137
42.02 163
42.04 136
42.06 149
42.08 142
42.10 158
42.12 135
42.14 148
42.16 158
42.18 166
42.20 164
42.22 141
42.24 160
42.26 151
42.28 159
42.30 149
42.32 175
42.34 185
42.36 160
42.38 170
42.40 158
42.42 159
42.44 150
42.46 155
42.48 129
42.50 152
42.52 145
42.54 127
42.56 122
42.58 146
42.60 133
42.62 147
42.64 139
42.66 144
42.68 134
42.70 144
42.72 137
42.74 133
42.76 131
42.78 142
42.80 139
42.82 121
42.84 101
42.86 128
42.88 134
42.90 124
42.92 147
42.94 122
42.96 138
42.98 117
43.00 124
43.02 134
43.04 102
43.06 121
43.08 107
43.10 114
43.12 112
43.14 114
43.16 119
43.18 108
43.20 117
43.22 116
43.24 96
43.26 120
43.28 98
43.30 122
43.32 98
43.34 107
43.36 88
43.38 95
43.40 94
43.42 93
43.44 104
43.46 97
43.48 108
43.50 103
43.52 89
43.54 101
43.56 96
43.58 90
43.60 107
43.62 85
43.64 90
43.66 70
43.68 90
43.70 93
43.72 74
43.74 79
43.76 80
43.78 93
43.80 89
43.82 96
43.84 101
43.86 65
43.88 88
43.90 101
43.92 82
43.94 108
43.96 100
43.98 99
44.00 97
44.02 95
44.04 109
44.06 85
44.08 97
44.10 96
44.12 72
44.14 74
44.16 90
44.18 74
44.20 75
44.22 102
44.24 90
44.26 97
44.28 87
44.30 99
44.32 95
44.34 75
44.36 93
44.38 100
44.40 97
44.42 74
44.44 94
44.46 71
44.48 87
44.50 68
44.52 95
44.54 82
44.56 93
44.58 91
44.60 97
44.62 89
44.64 84
44.66 93
44.68 90
44.70 82
44.72 82
44.74 94
44.76 102
44.78 90
44.80 76
44.82 105
44.84 75
44.86 85
44.88 85
44.90 83
44.92 90
44.94 74
44.96 80
44.98 80
45.00 88
45.02 90
45.04 72
45.06 67
45.08 70
45.10 89
45.12 88
45.14 74
45.16 99
45.18 83
45.20 91
45.22 96
45.24 91
45.26 92
45.28 91
45.30 101
45.32 90
45.34 83
45.36 99
45.38 91
45.40 96
45.42 89
45.44 104
45.46 87
45.48 102
45.50 89
45.52 90
45.54 96
45.56 87
45.58 121
45.60 109
45.62 118
45.64 108
45.66 94
45.68 105
45.70 101
45.72 95
45.74 99
45.76 108
45.78 120
45.80 103
45.82 100
45.84 132
45.86 110
45.88 117
45.90 107
45.92 137
45.94 117
45.96 125
45.98 137
46.00 143
46.02 120
46.04 142
46.06 142
46.08 116
46.10 129
46.12 136
46.14 149
46.16 149
46.18 127
46.20 135
46.22 137
46.24 135
46.26 159
46.28 145
46.30 134
46.32 148
46.34 121
46.36 149
46.38 133
46.40 139
46.42 138
46.44 136
46.46 149
46.48 143
46.50 158
46.52 144
46.54 166
46.56 129
46.58 142
46.60 139
46.62 170
46.64 176
46.66 153
46.68 160
46.70 191
46.72 187
46.74 205
46.76 174
46.78 195
46.80 203
46.82 216
46.84 213
46.86 216
46.88 250
46.90 259
46.92 249
46.94 282
46.96 280
46.98 280
47.00 300
47.02 280
47.04 322
47.06 325
47.08 338
47.10 334
47.12 384
47.14 403
47.16 400
47.18 434
47.20 432
47.22 506
47.24 517
47.26 548
47.28 637
47.30 675
47.32 717
47.34 830
47.36 919
47.38 1004
47.40 1229
47.42 1331
47.44 1486
47.46 1552
47.48 1818
47.50 1871
47.52 1984
47.54 1941
47.56 1987
47.58 1878
47.60 1867
47.62 1768
47.64 1600
47.66 1493
47.68 1321
47.70 1187
47.72 1129
47.74 890
47.76 835
47.78 773
47.80 651
47.82 574
47.84 547
47.86 482
47.88 464
47.90 412
47.92 370
47.94 334
47.96 312
47.98 330
48.00 277
48.02 279
48.04 238
48.06 208
48.08 222
48.10 214
48.12 200
48.14 208
48.16 193
48.18 172
48.20 182
48.22 164
48.24 164
48.26 156
48.28 143
48.30 178
48.32 124
48.34 174
48.36 165
48.38 132
48.40 144
48.42 133
48.44 145
48.46 137
48.48 129
48.50 139
48.52 153
48.54 141
48.56 114
48.58 121
48.60 122
48.62 150
48.64 116
48.66 130
48.68 118
48.70 121
48.72 105
48.74 124
48.76 111
48.78 132
48.80 118
48.82 97
48.84 100
48.86 124
48.88 122
48.90 127
48.92 136
48.94 119
48.96 92
48.98 132
49.00 124
49.02 134
49.04 125
49.06 130
49.08 120
49.10 129
49.12 138
49.14 120
49.16 103
49.18 136
49.20 122
49.22 127
49.24 110
49.26 117
49.28 124
49.30 132
49.32 143
49.34 133
49.36 139
49.38 114
49.40 115
49.42 104
49.44 140
49.46 124
49.48 111
49.50 119
49.52 126
49.54 126
49.56 116
49.58 121
49.60 137
49.62 114
49.64 109
49.66 118
49.68 104
49.70 117
49.72 104
49.74 116
49.76 95
49.78 112
49.80 127
49.82 126
49.84 97
49.86 106
49.88 117
49.90 97
49.92 115
49.94 113
49.96 115
49.98 97
50.00 123
50.02 117
50.04 108
50.06 111
50.08 89
50.10 88
50.12 75
50.14 92
50.16 106
50.18 100
50.20 111
50.22 109
50.24 86
50.26 92
50.28 94
50.30 102
50.32 103
50.34 103
50.36 92
50.38 119
50.40 98
50.42 94
50.44 108
50.46 102
50.48 94
50.50 102
50.52 81
50.54 91
50.56 78
50.58 104
50.60 100
50.62 90
50.64 94
50.66 82
50.68 69
50.70 98
50.72 95
50.74 97
50.76 98
50.78 99
50.80 94
50.82 86
50.84 79
50.86 76
50.88 95
50.90 112
50.92 105
50.94 106
50.96 98
50.98 117
51.00 99
51.02 112
51.04 90
51.06 102
51.08 116
51.10 108
51.12 102
51.14 110
51.16 112
51.18 107
51.20 96
51.22 97
51.24 96
51.26 96
51.28 109
51.30 110
51.32 106
51.34 100
51.36 90
51.38 113
51.40 126
51.42 109
51.44 115
51.46 117
51.48 139
51.50 113
51.52 111
51.54 95
51.56 113
51.58 110
51.60 126
51.62 93
51.64 113
51.66 114
51.68 113
51.70 129
51.72 116
51.74 122
51.76 137
51.78 122
51.80 135
51.82 112
51.84 139
51.86 123
51.88 139
51.90 126
51.92 147
51.94 127
51.96 128
51.98 126
52.00 116
52.02 130
52.04 141
52.06 131
52.08 153
52.10 134
52.12 121
52.14 138
52.16 129
52.18 127
52.20 108
52.22 126
52.24 149
52.26 134
52.28 122
52.30 131
52.32 135
52.34 136
52.36 113
52.38 125
52.40 129
52.42 109
52.44 121
52.46 139
52.48 107
52.50 108
52.52 118
52.54 118
52.56 110
52.58 129
52.60 121
52.62 132
52.64 121
52.66 144
52.68 135
52.70 121
52.72 124
52.74 106
52.76 138
52.78 124
52.80 138
52.82 146
52.84 138
52.86 143
52.88 133
52.90 144
52.92 156
52.94 160
52.96 132
52.98 142
53.00 162
53.02 166
53.04 166
53.06 155
53.08 192
53.10 157
53.12 152
53.14 138
53.16 167
53.18 139
53.20 160
53.22 164
53.24 149
53.26 146
53.28 147
53.30 146
53.32 141
53.34 143
53.36 143
53.38 140
53.40 161
53.42 140
53.44 153
53.46 153
53.48 165
53.50 136
53.52 125
53.54 151
53.56 152
53.58 157
53.60 135
53.62 156
53.64 144
53.66 145
53.68 139
53.70 141
53.72 141
53.74 144
53.76 148
53.78 145
53.80 174
53.82 142
53.84 158
53.86 159
53.88 159
53.90 141
53.92 160
53.94 140
53.96 167
53.98 144
54.00 142
54.02 184
54.04 153
54.06 178
54.08 135
54.10 154
54.12 178
54.14 157
54.16 148
54.18 161
54.20 168
54.22 159
54.24 149
54.26 172
54.28 157
54.30 174
54.32 164
54.34 163
54.36 169
54.38 163
54.40 198
54.42 153
54.44 172
54.46 161
54.48 152
54.50 159
54.52 165
54.54 171
54.56 145
54.58 165
54.60 170
54.62 167
54.64 158
54.66 177
54.68 151
54.70 145
54.72 156
54.74 166
54.76 162
54.78 176
54.80 190
54.82 140
54.84 133
54.86 186
54.88 175
54.90 175
54.92 137
54.94 145
54.96 163
54.98 158
55.00 164
55.02 152
55.04 157
55.06 173
55.08 161
55.10 167
55.12 170
55.14 161
55.16 154
55.18 158
55.20 128
55.22 162
55.24 151
55.26 147
55.28 127
55.30 164
55.32 156
55.34 147
55.36 146
55.38 156
55.40 147
55.42 166
55.44 176
55.46 171
55.48 146
55.50 175
55.52 165
55.54 172
55.56 167
55.58 141
55.60 159
55.62 163
55.64 161
55.66 184
55.68 165
55.70 169
55.72 176
55.74 190
55.76 198
55.78 194
55.80 184
55.82 194
55.84 206
55.86 223
55.88 224
55.90 254
55.92 210
55.94 256
55.96 248
55.98 250
56.00 263
56.02 287
56.04 316
56.06 295
56.08 307
56.10 363
56.12 353
56.14 375
56.16 405
56.18 445
56.20 504
56.22 523
56.24 576
56.26 673
56.28 615
56.30 787
56.32 837
56.34 935
56.36 1031
56.38 1125
56.40 1291
56.42 1439
56.44 1600
56.46 1738
56.48 2001
56.50 2286
56.52 2341
56.54 2549
56.56 2670
56.58 2650
56.60 2663
56.62 2600
56.64 2509
56.66 2350
56.68 2348
56.70 2204
56.72 2095
56.74 1867
56.76 1801
56.78 1644
56.80 1452
56.82 1316
56.84 1171
56.86 1075
56.88 957
56.90 821
56.92 749
56.94 743
56.96 668
56.98 612
57.00 561
57.02 538
57.04 476
57.06 457
57.08 445
57.10 426
57.12 384
57.14 394
57.16 345
57.18 348
57.20 350
57.22 360
57.24 367
57.26 343
57.28 350
57.30 347
57.32 399
57.34 341
57.36 329
57.38 335
57.40 344
57.42 339
57.44 379
57.46 329
57.48 338
57.50 280
57.52 360
57.54 290
57.56 290
57.58 343
57.60 301
57.62 261
57.64 280
57.66 251
57.68 228
57.70 277
57.72 227
57.74 247
57.76 248
57.78 209
57.80 219
57.82 226
57.84 197
57.86 191
57.88 208
57.90 208
57.92 224
57.94 192
57.96 202
57.98 217
58.00 191
58.02 178
58.04 210
58.06 193
58.08 185
58.10 205
58.12 182
58.14 184
58.16 182
58.18 168
58.20 193
58.22 209
58.24 152
58.26 176
58.28 182
58.30 170
58.32 184
58.34 157
58.36 158
58.38 182
58.40 175
58.42 170
58.44 187
58.46 178
58.48 185
58.50 172
58.52 203
58.54 177
58.56 155
58.58 178
58.60 172
58.62 160
58.64 181
58.66 172
58.68 185
58.70 173
58.72 203
58.74 190
58.76 173
58.78 190
58.80 183
58.82 201
58.84 191
58.86 187
58.88 188
58.90 234
58.92 210
58.94 216
58.96 203
58.98 227
59.00 233
59.02 237
59.04 235
59.06 226
59.08 230
59.10 263
59.12 254
59.14 244
59.16 270
59.18 229
59.20 282
59.22 285
59.24 289
59.26 302
59.28 262
59.30 277
59.32 309
59.34 287
59.36 327
59.38 345
59.40 302
59.42 329
59.44 317
59.46 373
59.48 324
59.50 368
59.52 341
59.54 380
59.56 345
59.58 351
59.60 373
59.62 306
59.64 328
59.66 286
59.68 309
59.70 301
59.72 291
59.74 296
59.76 282
59.78 239
59.80 269
59.82 231
59.84 228
59.86 229
59.88 246
59.90 248
59.92 247
59.94 209
59.96 235
59.98 213
60.00 207
60.02 195
60.04 212
60.06 191
60.08 192
60.10 198
60.12 147
60.14 186
60.16 188
60.18 181
60.20 204
60.22 159
60.24 164
60.26 152
60.28 151
60.30 185
60.32 154
60.34 163
60.36 156
60.38 177
60.40 163
60.42 167
60.44 149
60.46 163
60.48 144
60.50 149
60.52 154
60.54 157
60.56 163
60.58 137
60.60 134
60.62 136
60.64 145
60.66 139
60.68 146
60.70 149
60.72 162
60.74 153
60.76 155
60.78 133
60.80 153
60.82 119
60.84 162
60.86 128
60.88 139
60.90 145
60.92 133
60.94 125
60.96 128
60.98 134
61.00 122
61.02 143
61.04 124
61.06 129
61.08 121
61.10 126
61.12 142
61.14 130
61.16 122
61.18 124
61.20 142
61.22 128
61.24 115
61.26 141
61.28 119
61.30 136
61.32 112
61.34 143
61.36 130
61.38 129
61.40 132
61.42 132
61.44 137
61.46 154
61.48 141
61.50 132
61.52 124
61.54 154
61.56 144
61.58 166
61.60 149
61.62 150
61.64 161
61.66 133
61.68 166
61.70 154
61.72 141
61.74 164
61.76 138
61.78 155
61.80 175
61.82 175
61.84 168
61.86 163
61.88 166
61.90 191
61.92 184
61.94 181
61.96 197
61.98 188
62.00 208
62.02 205
62.04 190
62.06 225
62.08 213
62.10 202
62.12 216
62.14 215
62.16 236
62.18 221
62.20 272
62.22 262
62.24 297
62.26 269
62.28 296
62.30 280
62.32 312
62.34 305
62.36 337
62.38 374
62.40 396
62.42 428
62.44 418
62.46 443
62.48 531
62.50 542
62.52 562
62.54 658
62.56 705
62.58 814
62.60 846
62.62 950
62.64 1016
62.66 1153
62.68 1300
62.70 1449
62.72 1579
62.74 1765
62.76 1987
62.78 2173
62.80 2302
62.82 2439
62.84 2483
62.86 2463
62.88 2334
62.90 2276
62.92 2215
62.94 2100
62.96 2011
62.98 2023
63.00 1750
63.02 1731
63.04 1658
63.06 1386
63.08 1347
63.10 1198
63.12 1075
63.14 962
63.16 878
63.18 806
63.20 704
63.22 666
63.24 575
63.26 541
63.28 464
63.30 489
63.32 422
63.34 416
63.36 394
63.38 342
63.40 351
63.42 301
63.44 334
63.46 283
63.48 263
63.50 257
63.52 239
63.54 235
63.56 235
63.58 216
63.60 253
63.62 202
63.64 224
63.66 191
63.68 220
63.70 200
63.72 182
63.74 206
63.76 191
63.78 176
63.80 188
63.82 187
63.84 186
63.86 176
63.88 179
63.90 182
63.92 154
63.94 181
63.96 154
63.98 172
64.00 169
64.02 170
64.04 162
64.06 166
64.08 175
64.10 156
64.12 145
64.14 147
64.16 165
64.18 148
64.20 143
64.22 157
64.24 144
64.26 128
64.28 151
64.30 141
64.32 146
64.34 151
64.36 141
64.38 153
64.40 129
64.42 143
64.44 150
64.46 152
64.48 140
64.50 156
64.52 161
64.54 137
64.56 123
64.58 135
64.60 138
64.62 159
64.64 136
64.66 124
64.68 141
64.70 128
64.72 138
64.74 136
64.76 123
64.78 137
64.80 135
64.82 145
64.84 136
64.86 144
64.88 124
64.90 122
64.92 142
64.94 122
64.96 161
64.98 132
65.00 136
65.02 128
65.04 127
65.06 127
65.08 157
65.10 136
65.12 124
65.14 132
65.16 149
65.18 138
65.20 146
65.22 128
65.24 123
65.26 137
65.28 136
65.30 137
65.32 131
65.34 159
65.36 129
65.38 125
65.40 124
65.42 139
65.44 133
65.46 129
65.48 145
65.50 168
65.52 127
65.54 137
65.56 115
65.58 140
65.60 132
65.62 132
65.64 129
65.66 152
65.68 122
65.70 145
65.72 127
65.74 142
65.76 141
65.78 141
65.80 136
65.82 128
65.84 165
65.86 148
65.88 164
65.90 144
65.92 166
65.94 150
65.96 164
65.98 170
66.00 185
66.02 150
66.04 193
66.06 178
66.08 185
66.10 221
66.12 210
66.14 223
66.16 225
66.18 262
66.20 299
66.22 336
66.24 349
66.26 341
66.28 369
66.30 366
66.32 405
66.34 410
66.36 399
66.38 426
66.40 409
66.42 425
66.44 387
66.46 370
66.48 351
66.50 353
66.52 375
66.54 340
66.56 344
66.58 309
66.60 277
66.62 246
66.64 256
66.66 243
66.68 229
66.70 221
66.72 244
66.74 195
66.76 210
66.78 174
66.80 203
66.82 177
66.84 172
66.86 184
66.88 177
66.90 174
66.92 170
66.94 164
66.96 187
66.98 174
67.00 150
67.02 169
67.04 166
67.06 161
67.08 185
67.10 191
67.12 201
67.14 201
67.16 191
67.18 189
67.20 192
67.22 194
67.24 205
67.26 221
67.28 199
67.30 243
67.32 229
67.34 232
67.36 252
67.38 237
67.40 264
67.42 289
67.44 329
67.46 341
67.48 349
67.50 395
67.52 378
67.54 451
67.56 425
67.58 484
67.60 514
67.62 566
67.64 610
67.66 705
67.68 695
67.70 788
67.72 916
67.74 994
67.76 1053
67.78 1155
67.80 1302
67.82 1378
67.84 1474
67.86 1589
67.88 1640
67.90 1716
67.92 1747
67.94 1753
67.96 1771
67.98 1724
68.00 1703
68.02 1709
68.04 1599
68.06 1562
68.08 1527
68.10 1388
68.12 1334
68.14 1258
68.16 1195
68.18 1096
68.20 1014
68.22 883
68.24 849
68.26 767
68.28 734
68.30 671
68.32 629
68.34 553
68.36 515
68.38 507
68.40 477
68.42 400
68.44 445
68.46 448
68.48 377
68.50 368
68.52 372
68.54 378
68.56 357
68.58 343
68.60 368
68.62 355
68.64 328
68.66 355
68.68 378
68.70 339
68.72 383
68.74 394
68.76 401
68.78 438
68.80 452
68.82 493
68.84 510
68.86 518
68.88 577
68.90 628
68.92 636
68.94 666
68.96 772
68.98 833
69.00 886
69.02 856
69.04 938
69.06 915
69.08 908
69.10 907
69.12 907
69.14 935
69.16 880
69.18 796
69.20 830
69.22 712
69.24 720
69.26 676
69.28 684
69.30 634
69.32 588
69.34 562
69.36 523
69.38 491
69.40 442
69.42 427
69.44 379
69.46 357
69.48 326
69.50 329
69.52 316
69.54 259
69.56 275
69.58 252
69.60 242
69.62 206
69.64 206
69.66 203
69.68 192
69.70 188
69.72 198
69.74 199
69.76 175
69.78 187
69.80 158
69.82 159
69.84 156
69.86 176
69.88 142
69.90 148
69.92 129
69.94 142
69.96 146
69.98 147
70.00 129
70.02 172
70.04 126
70.06 130
70.08 132
70.10 120
70.12 119
70.14 117
70.16 126
70.18 119
70.20 108
70.22 98
70.24 110
70.26 119
70.28 121
70.30 113
70.32 110
70.34 106
70.36 116
70.38 126
70.40 130
70.42 93
70.44 108
70.46 124
70.48 100
70.50 99
70.52 119
70.54 92
70.56 90
70.58 95
70.60 96
70.62 114
70.64 84
70.66 88
70.68 80
70.70 99
70.72 77
70.74 118
70.76 97
70.78 87
70.80 102
70.82 85
70.84 82
70.86 96
70.88 94
70.90 105
70.92 89
70.94 89
70.96 85
70.98 102
71.00 104
71.02 84
71.04 91
71.06 74
71.08 105
71.10 81
71.12 92
71.14 97
71.16 100
71.18 88
71.20 58
71.22 87
71.24 80
71.26 103
71.28 109
71.30 83
71.32 91
71.34 91
71.36 98
71.38 88
71.40 100
71.42 95
71.44 88
71.46 83
71.48 94
71.50 95
71.52 112
71.54 95
71.56 88
71.58 111
71.60 104
71.62 101
71.64 94
71.66 116
71.68 99
71.70 88
71.72 114
71.74 100
71.76 98
71.78 98
71.80 101
71.82 96
71.84 98
71.86 95
71.88 70
71.90 99
71.92 99
71.94 87
71.96 86
71.98 98
72.00 111
72.02 79
72.04 93
72.06 114
72.08 96
72.10 103
72.12 105
72.14 101
72.16 114
72.18 110
72.20 133
72.22 111
72.24 117
72.26 124
72.28 95
72.30 122
72.32 121
72.34 154
72.36 147
72.38 156
72.40 163
72.42 170
72.44 217
72.46 234
72.48 208
72.50 230
72.52 271
72.54 262
72.56 240
72.58 257
72.60 231
72.62 230
72.64 213
72.66 215
72.68 180
72.70 191
72.72 174
72.74 185
72.76 183
72.78 171
72.80 168
72.82 152
72.84 151
72.86 129
72.88 119
72.90 121
72.92 130
72.94 121
72.96 92
72.98 115
73.00 112
73.02 96
73.04 103
73.06 101
73.08 99
73.10 95
73.12 85
73.14 79
73.16 88
73.18 76
73.20 93
73.22 73
73.24 75
73.26 83
73.28 89
73.30 86
73.32 77
73.34 83
73.36 88
73.38 79
73.40 72
73.42 88
73.44 76
73.46 72
73.48 70
73.50 65
73.52 66
73.54 72
73.56 75
73.58 80
73.60 66
73.62 74
73.64 69
73.66 74
73.68 58
73.70 84
73.72 61
73.74 65
73.76 71
73.78 76
73.80 76
73.82 66
73.84 76
73.86 68
73.88 80
73.90 63
73.92 75
73.94 55
73.96 59
73.98 57
74.00 50
74.02 74
74.04 64
74.06 72
74.08 65
74.10 73
74.12 69
74.14 57
74.16 64
74.18 73
74.20 86
74.22 74
74.24 52
74.26 64
74.28 62
74.30 67
74.32 69
74.34 80
74.36 81
74.38 77
74.40 70
74.42 62
74.44 79
74.46 79
74.48 61
74.50 81
74.52 66
74.54 67
74.56 61
74.58 70
74.60 73
74.62 66
74.64 75
74.66 55
74.68 62
74.70 58
74.72 62
74.74 66
74.76 63
74.78 77
74.80 55
74.82 78
74.84 65
74.86 66
74.88 82
74.90 70
74.92 62
74.94 66
74.96 53
74.98 67
75.00 65
75.02 75
75.04 76
75.06 67
75.08 68
75.10 65
75.12 56
75.14 65
75.16 70
75.18 63
75.20 76
75.22 69
75.24 58
75.26 53
75.28 73
75.30 67
75.32 68
75.34 66
75.36 68
75.38 62
75.40 62
75.42 69
75.44 61
75.46 52
75.48 68
75.50 57
75.52 63
75.54 83
75.56 77
75.58 76
75.60 60
75.62 56
75.64 59
75.66 69
75.68 65
75.70 72
75.72 73
75.74 59
75.76 62
75.78 62
75.80 63
75.82 77
75.84 59
75.86 75
75.88 60
75.90 71
75.92 73
75.94 77
75.96 74
75.98 62
76.00 91
76.02 71
76.04 71
76.06 79
76.08 63
76.10 65
76.12 66
76.14 96
76.16 81
76.18 75
76.20 73
76.22 82
76.24 85
76.26 77
76.28 83
76.30 61
76.32 78
76.34 85
76.36 79
76.38 94
76.40 103
76.42 87
76.44 102
76.46 115
76.48 110
76.50 104
76.52 114
76.54 119
76.56 125
76.58 133
76.60 115
76.62 132
76.64 123
76.66 142
76.68 149
76.70 158
76.72 157
76.74 191
76.76 218
76.78 242
76.80 235
76.82 246
76.84 264
76.86 270
76.88 276
76.90 281
76.92 270
76.94 270
76.96 288
76.98 280
77.00 264
77.02 281
77.04 261
77.06 275
77.08 265
77.10 248
77.12 252
77.14 220
77.16 225
77.18 224
77.20 209
77.22 196
77.24 155
77.26 191
77.28 154
77.30 151
77.32 176
77.34 159
77.36 132
77.38 147
77.40 131
77.42 137
77.44 108
77.46 125
77.48 104
77.50 93
77.52 103
77.54 103
77.56 90
77.58 96
77.60 93
77.62 91
77.64 88
77.66 76
77.68 78
77.70 93
77.72 116
77.74 82
77.76 82
77.78 80
77.80 81
77.82 87
77.84 68
77.86 88
77.88 81
77.90 84
77.92 86
77.94 80
77.96 68
77.98 68
78.00 58
78.02 84
78.04 79
78.06 67
78.08 72
78.10 67
78.12 70
78.14 79
78.16 68
78.18 72
78.20 62
78.22 76
78.24 65
78.26 56
78.28 68
78.30 59
78.32 84
78.34 73
78.36 72
78.38 57
78.40 54
78.42 71
78.44 76
78.46 70
78.48 69
78.50 75
78.52 72
78.54 63
78.56 63
78.58 59
78.60 71
78.62 66
78.64 72
78.66 74
78.68 79
78.70 60
78.72 60
78.74 53
78.76 69
78.78 85
78.80 74
78.82 76
78.84 64
78.86 55
78.88 75
78.90 56
78.92 59
78.94 84
78.96 69
78.98 74
79.00 57
79.02 86
79.04 64
79.06 73
79.08 81
79.10 54
79.12 74
79.14 74
79.16 87
79.18 59
79.20 59
79.22 77
79.24 74
79.26 70
79.28 64
79.30 69
79.32 55
79.34 59
79.36 74
79.38 80
79.40 66
79.42 82
79.44 72
79.46 57
79.48 53
79.50 65
79.52 56
79.54 55
79.56 78
79.58 76
79.60 65
79.62 82
79.64 55
79.66 65
79.68 61
79.70 77
79.72 54
79.74 67
79.76 69
79.78 65
79.80 55
79.82 64
79.84 52
79.86 55
79.88 62
79.90 68
79.92 62
79.94 59
79.96 64
79.98 53
80.00 67
80.02 65
80.04 54
80.06 54
80.08 61
80.10 67
80.12 71
80.14 55
80.16 60
80.18 53
80.20 64
80.22 53
80.24 66
80.26 67
80.28 61
80.30 66
80.32 49
80.34 65
80.36 61
80.38 69
80.40 60
80.42 61
80.44 60
80.46 65
80.48 67
80.50 67
80.52 63
80.54 64
80.56 66
80.58 55
80.60 79
80.62 75
80.64 66
80.66 67
80.68 59
80.70 74
80.72 74
80.74 62
80.76 85
80.78 57
80.80 61
80.82 72
80.84 80
80.86 80
80.88 74
80.90 68
80.92 84
80.94 89
80.96 97
80.98 69
81.00 88
81.02 90
81.04 94
81.06 91
81.08 108
81.10 115
81.12 105
81.14 124
81.16 117
81.18 118
81.20 117
81.22 138
81.24 140
81.26 168
81.28 174
81.30 182
81.32 200
81.34 196
81.36 164
81.38 174
81.40 185
81.42 180
81.44 185
81.46 152
81.48 179
81.50 155
81.52 187
81.54 153
81.56 150
81.58 163
81.60 155
81.62 146
81.64 153
81.66 144
81.68 126
81.70 121
81.72 123
81.74 119
81.76 113
81.78 100
81.80 106
81.82 95
81.84 93
81.86 106
81.88 83
81.90 105
81.92 100
81.94 88
81.96 90
81.98 70
82.00 88
82.02 91
82.04 102
82.06 84
82.08 70
82.10 104
82.12 77
82.14 89
82.16 65
82.18 84
82.20 107
82.22 77
82.24 84
82.26 84
82.28 89
82.30 81
82.32 84
82.34 71
82.36 75
82.38 82
82.40 79
82.42 97
82.44 79
82.46 70
82.48 75
82.50 73
82.52 72
82.54 69
82.56 68
82.58 71
82.60 60
82.62 67
82.64 77
82.66 71
82.68 78
82.70 61
82.72 67
82.74 69
82.76 72
82.78 97
82.80 74
82.82 74
82.84 68
82.86 83
82.88 82
82.90 86
82.92 85
82.94 71
82.96 69
82.98 77
83.00 64
83.02 79
83.04 72
83.06 66
83.08 85
83.10 82
83.12 69
83.14 64
83.16 58
83.18 66
83.20 73
83.22 96
83.24 61
83.26 71
83.28 82
83.30 54
83.32 67
83.34 76
83.36 72
83.38 65
83.40 67
83.42 60
83.44 61
83.46 65
83.48 64
83.50 62
83.52 67
83.54 74
83.56 64
83.58 70
83.60 72
83.62 73
83.64 66
83.66 74
83.68 69
83.70 72
83.72 53
83.74 49
83.76 71
83.78 45
83.80 62
83.82 58
83.84 56
83.86 55
83.88 62
83.90 51
83.92 54
83.94 53
83.96 64
83.98 52
84.00 63
84.02 84
84.04 73
84.06 55
84.08 55
84.10 53
84.12 59
84.14 62
84.16 49
84.18 60
84.20 55
84.22 68
84.24 52
84.26 55
84.28 65
84.30 59
84.32 62
84.34 62
84.36 66
84.38 58
84.40 45
84.42 67
84.44 68
84.46 63
84.48 62
84.50 48
84.52 60
84.54 65
84.56 43
84.58 57
84.60 54
84.62 57
84.64 59
84.66 72
84.68 63
84.70 46
84.72 45
84.74 44
84.76 47
84.78 51
84.80 68
84.82 65
84.84 42
84.86 63
84.88 53
84.90 61
84.92 49
84.94 56
84.96 56
84.98 49
85.00 46
85.02 59
85.04 47
85.06 57
85.08 65
85.10 61
85.12 49
85.14 55
85.16 67
85.18 47
85.20 55
85.22 72
85.24 64
85.26 47
85.28 61
85.30 59
85.32 51
85.34 67
85.36 47
85.38 54
85.40 61
85.42 54
85.44 59
85.46 62
85.48 50
85.50 54
85.52 59
85.54 69
85.56 50
85.58 52
85.60 53
85.62 51
85.64 53
85.66 59
85.68 53
85.70 74
85.72 57
85.74 66
85.76 64
85.78 54
85.80 58
85.82 61
85.84 64
85.86 66
85.88 44
85.90 54
85.92 60
85.94 68
85.96 61
85.98 65
86.00 57
86.02 48
86.04 53
86.06 51
86.08 58
86.10 63
86.12 62
86.14 50
86.16 62
86.18 62
86.20 61
86.22 71
86.24 61
86.26 65
86.28 47
86.30 57
86.32 80
86.34 53
86.36 57
86.38 64
86.40 45
86.42 61
86.44 65
86.46 71
86.48 61
86.50 60
86.52 55
86.54 59
86.56 70
86.58 52
86.60 57
86.62 48
86.64 67
86.66 54
86.68 58
86.70 47
86.72 57
86.74 62
86.76 68
86.78 63
86.80 53
86.82 59
86.84 49
86.86 62
86.88 59
86.90 69
86.92 68
86.94 69
86.96 65
86.98 65
87.00 57
87.02 52
87.04 55
87.06 61
87.08 59
87.10 67
87.12 46
87.14 69
87.16 46
87.18 65
87.20 57
87.22 63
87.24 51
87.26 43
87.28 62
87.30 83
87.32 43
87.34 64
87.36 53
87.38 62
87.40 55
87.42 65
87.44 67
87.46 55
87.48 57
87.50 64
87.52 66
87.54 71
87.56 58
87.58 61
87.60 57
87.62 63
87.64 62
87.66 60
87.68 68
87.70 52
87.72 68
87.74 69
87.76 63
87.78 56
87.80 71
87.82 73
87.84 55
87.86 59
87.88 53
87.90 58
87.92 55
87.94 69
87.96 69
87.98 73
88.00 63
88.02 66
88.04 69
88.06 66
88.08 73
88.10 73
88.12 76
88.14 67
88.16 67
88.18 55
88.20 62
88.22 55
88.24 70
88.26 58
88.28 62
88.30 54
88.32 68
88.34 79
88.36 94
88.38 78
88.40 75
88.42 68
88.44 58
88.46 80
88.48 58
88.50 68
88.52 66
88.54 79
88.56 81
88.58 93
88.60 91
88.62 99
88.64 82
88.66 76
88.68 74
88.70 84
88.72 81
88.74 98
88.76 72
88.78 89
88.80 93
88.82 96
88.84 115
88.86 101
88.88 90
88.90 102
88.92 117
88.94 102
88.96 111
88.98 108
89.00 121
89.02 136
89.04 167
89.06 131
89.08 139
89.10 167
89.12 165
89.14 163
89.16 157
89.18 187
89.20 179
89.22 205
89.24 203
89.26 219
89.28 243
89.30 235
89.32 267
89.34 313
89.36 303
89.38 326
89.40 378
89.42 391
89.44 397
89.46 463
89.48 420
89.50 475
89.52 451
89.54 479
89.56 548
89.58 505
89.60 501
89.62 509
89.64 494
89.66 490
89.68 492
89.70 478
89.72 419
89.74 409
89.76 417
89.78 363
89.80 410
89.82 417
89.84 370
89.86 390
89.88 370
89.90 347
89.92 343
89.94 296
89.96 275
89.98 271
90.00 272
90.02 216
90.04 233
90.06 197
90.08 205
90.10 213
90.12 191
90.14 216
90.16 169
90.18 165
90.20 155
90.22 149
90.24 133
90.26 135
90.28 120
90.30 126
90.32 134
90.34 114
90.36 116
90.38 124
90.40 96
90.42 112
90.44 101
90.46 110
90.48 97
90.50 117
90.52 91
90.54 94
90.56 102
90.58 90
90.60 98
90.62 87
90.64 103
90.66 101
90.68 78
90.70 89
90.72 90
90.74 93
90.76 87
90.78 86
90.80 92
90.82 91
90.84 94
90.86 96
90.88 85
90.90 72
90.92 89
90.94 53
90.96 84
90.98 80
91.00 100
91.02 74
91.04 76
91.06 82
91.08 78
91.10 73
91.12 77
91.14 80
91.16 80
91.18 75
91.20 74
91.22 70
91.24 73
91.26 59
91.28 78
91.30 75
91.32 87
91.34 85
91.36 68
91.38 88
91.40 71
91.42 88
91.44 76
91.46 94
91.48 82
91.50 74
91.52 77
91.54 99
91.56 80
91.58 82
91.60 86
91.62 73
91.64 65
91.66 70
91.68 72
91.70 69
91.72 80
91.74 61
91.76 80
91.78 73
91.80 82
91.82 77
91.84 74
91.86 77
91.88 83
91.90 85
91.92 102
91.94 85
91.96 85
91.98 80
92.00 91
92.02 79
92.04 103
92.06 108
92.08 87
92.10 115
92.12 92
92.14 101
92.16 85
92.18 98
92.20 110
92.22 96
92.24 103
92.26 116
92.28 94
92.30 113
92.32 118
92.34 123
92.36 126
92.38 110
92.40 126
92.42 134
92.44 127
92.46 128
92.48 158
92.50 153
92.52 148
92.54 162
92.56 194
92.58 173
92.60 188
92.62 197
92.64 190
92.66 210
92.68 205
92.70 225
92.72 228
92.74 229
92.76 217
92.78 220
92.80 220
92.82 203
92.84 220
92.86 223
92.88 231
92.90 205
92.92 219
92.94 217
92.96 167
92.98 208
93.00 195
93.02 214
93.04 198
93.06 175
93.08 204
93.10 170
93.12 145
93.14 150
93.16 142
93.18 146
93.20 134
93.22 134
93.24 135
93.26 148
93.28 109
93.30 136
93.32 114
93.34 138
93.36 100
93.38 116
93.40 97
93.42 133
93.44 117
93.46 95
93.48 100
93.50 106
93.52 81
93.54 97
93.56 81
93.58 96
93.60 85
93.62 97
93.64 94
93.66 89
93.68 96
93.70 84
93.72 99
93.74 103
93.76 82
93.78 98
93.80 109
93.82 91
93.84 92
93.86 90
93.88 86
93.90 78
93.92 110
93.94 89
93.96 103
93.98 77
94.00 101
94.02 98
94.04 95
94.06 90
94.08 95
94.10 100
94.12 80
94.14 89
94.16 94
94.18 109
94.20 85
94.22 100
94.24 82
94.26 90
94.28 100
94.30 111
94.32 103
94.34 100
94.36 92
94.38 104
94.40 79
94.42 103
94.44 123
94.46 124
94.48 92
94.50 144
94.52 113
94.54 115
94.56 137
94.58 126
94.60 128
94.62 140
94.64 137
94.66 160
94.68 146
94.70 151
94.72 161
94.74 132
94.76 160
94.78 180
94.80 167
94.82 189
94.84 199
94.86 202
94.88 212
94.90 216
94.92 243
94.94 254
94.96 264
94.98 285
95.00 321
95.02 293
95.04 286
95.06 343
95.08 362
95.10 352
95.12 376
95.14 441
95.16 485
95.18 490
95.20 470
95.22 506
95.24 514
95.26 502
95.28 513
95.30 471
95.32 460
95.34 471
95.36 472
95.38 464
95.40 441
95.42 434
95.44 380
95.46 401
95.48 417
95.50 401
95.52 424
95.54 395
95.56 377
95.58 379
95.60 339
95.62 357
95.64 325
95.66 283
95.68 276
95.70 272
95.72 252
95.74 255
95.76 253
95.78 222
95.80 224
95.82 210
95.84 178
95.86 176
95.88 197
95.90 154
95.92 170
95.94 144
95.96 170
95.98 151
96.00 135
96.02 133
96.04 150
96.06 139
96.08 120
96.10 120
96.12 125
96.14 122
96.16 118
96.18 91
96.20 117
96.22 106
96.24 120
96.26 115
96.28 119
96.30 98
96.32 104
96.34 110
96.36 113
96.38 90
96.40 85
96.42 102
96.44 99
96.46 109
96.48 90
96.50 92
96.52 103
96.54 82
96.56 78
96.58 92
96.60 97
96.62 83
96.64 88
96.66 90
96.68 83
96.70 73
96.72 86
96.74 85
96.76 93
96.78 100
96.80 91
96.82 82
96.84 72
96.86 100
96.88 100
96.90 86
96.92 74
96.94 87
96.96 70
96.98 98
97.00 93
97.02 91
97.04 78
97.06 99
97.08 85
97.10 82
97.12 74
97.14 82
97.16 77
97.18 83
97.20 89
97.22 78
97.24 87
97.26 78
97.28 67
97.30 93
97.32 75
97.34 92
97.36 103
97.38 108
97.40 81
97.42 83
97.44 73
97.46 93
97.48 90
97.50 94
97.52 88
97.54 91
97.56 89
97.58 82
97.60 102
97.62 94
97.64 78
97.66 97
97.68 86
97.70 92
97.72 104
97.74 81
97.76 87
97.78 103
97.80 103
97.82 91
97.84 110
97.86 112
97.88 126
97.90 108
97.92 106
97.94 95
97.96 112
97.98 130
98.00 112
98.02 107
98.04 122
98.06 139
98.08 101
98.10 143
98.12 125
98.14 143
98.16 151
98.18 170
98.20 171
98.22 172
98.24 145
98.26 174
98.28 168
98.30 190
98.32 184
98.34 196
98.36 201
98.38 259
98.40 227
98.42 242
98.44 229
98.46 271
98.48 289
98.50 312
98.52 301
98.54 301
98.56 288
98.58 262
98.60 298
98.62 305
98.64 318
98.66 259
98.68 268
98.70 298
98.72 290
98.74 265
98.76 269
98.78 286
98.80 268
98.82 259
98.84 239
98.86 257
98.88 242
98.90 246
98.92 221
98.94 226
98.96 224
98.98 207
99.00 185
99.02 183
99.04 203
99.06 152
99.08 174
99.10 191
99.12 155
99.14 152
99.16 137
99.18 130
99.20 138
99.22 130
99.24 116
99.26 119
99.28 90
99.30 102
99.32 105
99.34 120
99.36 95
99.38 97
99.40 93
99.42 90
99.44 109
99.46 97
99.48 93
99.50 103
99.52 70
99.54 98
99.56 91
99.58 110
99.60 89
99.62 89
99.64 92
99.66 88
99.68 78
99.70 93
99.72 96
99.74 97
99.76 89
99.78 78
99.80 80
99.82 82
99.84 67
99.86 73
99.88 79
99.90 76
99.92 79
99.94 83
99.96 85
99.98 71
100.00 72
100.02 90
100.04 80
100.06 73
100.08 72
100.10 80
100.12 85
100.14 76
100.16 82
100.18 77
100.20 73
100.22 86
100.24 78
100.26 90
100.28 63
100.30 83
100.32 84
100.34 66
100.36 69
100.38 61
100.40 74
100.42 79
100.44 65
100.46 81
100.48 91
100.50 92
100.52 68
100.54 75
100.56 74
100.58 69
100.60 62
100.62 58
100.64 68
100.66 79
100.68 55
100.70 84
100.72 82
100.74 86
100.76 75
100.78 76
100.80 67
100.82 56
100.84 74
100.86 73
100.88 72
100.90 87
100.92 77
100.94 82
100.96 76
100.98 65
101.00 53
101.02 73
101.04 71
101.06 64
101.08 84
101.10 91
101.12 73
101.14 78
101.16 66
101.18 77
101.20 83
101.22 75
101.24 80
101.26 84
101.28 79
101.30 77
101.32 80
101.34 78
101.36 87
101.38 64
101.40 76
101.42 78
101.44 84
101.46 73
101.48 80
101.50 86
101.52 92
101.54 83
101.56 82
101.58 89
101.60 66
101.62 87
101.64 70
101.66 82
101.68 84
101.70 90
101.72 76
101.74 83
101.76 76
101.78 95
101.80 89
101.82 84
101.84 74
101.86 79
101.88 62
101.90 91
101.92 84
101.94 79
101.96 92
101.98 79
102.00 94
102.02 81
102.04 82
102.06 102
102.08 96
102.10 95
102.12 93
102.14 105
102.16 67
102.18 94
102.20 90
102.22 101
102.24 105
102.26 110
102.28 103
102.30 99
102.32 105
102.34 110
102.36 102
102.38 111
102.40 120
102.42 132
102.44 104
102.46 116
102.48 122
102.50 119
102.52 128
102.54 158
102.56 136
102.58 163
102.60 176
102.62 147
102.64 181
102.66 191
102.68 187
102.70 196
102.72 190
102.74 223
102.76 210
102.78 215
102.80 215
102.82 249
102.84 202
102.86 243
102.88 228
102.90 206
102.92 239
102.94 214
102.96 225
102.98 198
103.00 231
103.02 189
103.04 234
103.06 201
103.08 187
103.10 206
103.12 200
103.14 216
103.16 230
103.18 205
103.20 188
103.22 204
103.24 202
103.26 189
103.28 188
103.30 171
103.32 201
103.34 189
103.36 186
103.38 158
103.40 185
103.42 181
103.44 166
103.46 162
103.48 178
103.50 145
103.52 165
103.54 148
103.56 197
103.58 186
103.60 185
103.62 184
103.64 197
103.66 179
103.68 185
103.70 211
103.72 192
103.74 223
103.76 225
103.78 235
103.80 229
103.82 220
103.84 249
103.86 274
103.88 289
103.90 265
103.92 336
103.94 352
103.96 347
103.98 338
104.00 324
104.02 349
104.04 392
104.06 372
104.08 419
104.10 431
104.12 395
104.14 339
104.16 427
104.18 356
104.20 358
104.22 348
104.24 325
104.26 328
104.28 327
104.30 302
104.32 323
104.34 328
104.36 325
104.38 307
104.40 297
104.42 303
104.44 271
104.46 274
104.48 305
104.50 264
104.52 260
104.54 245
104.56 271
104.58 234
104.60 225
104.62 187
104.64 183
104.66 186
104.68 197
104.70 148
104.72 156
104.74 159
104.76 157
104.78 136
104.80 120
104.82 145
104.84 142
104.86 122
104.88 123
104.90 137
104.92 126
104.94 108
104.96 124
104.98 128
105.00 105
105.02 116
105.04 108
105.06 97
105.08 106
105.10 97
105.12 106
105.14 109
105.16 93
105.18 87
105.20 77
105.22 86
105.24 94
105.26 76
105.28 73
105.30 93
105.32 81
105.34 90
105.36 75
105.38 73
105.40 71
105.42 70
105.44 91
105.46 71
105.48 87
105.50 88
105.52 88
105.54 78
105.56 78
105.58 72
105.60 84
105.62 59
105.64 86
105.66 85
105.68 72
105.70 74
105.72 70
105.74 84
105.76 70
105.78 75
105.80 74
105.82 67
105.84 69
105.86 84
105.88 83
105.90 74
105.92 83
105.94 81
105.96 73
105.98 82
106.00 79
106.02 75
106.04 63
106.06 71
106.08 80
106.10 85
106.12 70
106.14 78
106.16 69
106.18 65
106.20 59
106.22 80
106.24 81
106.26 63
106.28 90
106.30 71
106.32 85
106.34 75
106.36 79
106.38 59
106.40 70
106.42 64
106.44 61
106.46 93
106.48 76
106.50 70
106.52 69
106.54 94
106.56 67
106.58 67
106.60 60
106.62 78
106.64 59
106.66 90
106.68 74
106.70 77
106.72 76
106.74 83
106.76 85
106.78 82
106.80 67
106.82 71
106.84 77
106.86 63
106.88 81
106.90 75
106.92 93
106.94 94
106.96 68
106.98 81
107.00 70
107.02 78
107.04 88
107.06 87
107.08 101
107.10 93
107.12 96
107.14 93
107.16 97
107.18 93
107.20 109
107.22 98
107.24 108
107.26 96
107.28 96
107.30 109
107.32 122
107.34 110
107.36 110
107.38 101
107.40 104
107.42 97
107.44 125
107.46 95
107.48 97
107.50 103
107.52 117
107.54 109
107.56 91
107.58 92
107.60 98
107.62 105
107.64 107
107.66 114
107.68 103
107.70 98
107.72 84
107.74 92
107.76 86
107.78 105
107.80 103
107.82 117
107.84 102
107.86 82
107.88 88
107.90 91
107.92 98
107.94 102
107.96 102
107.98 87
108.00 75
108.02 74
108.04 99
108.06 72
108.08 74
108.10 68
108.12 72
108.14 70
108.16 85
108.18 67
108.20 82
108.22 97
108.24 67
108.26 80
108.28 90
108.30 84
108.32 81
108.34 87
108.36 81
108.38 60
108.40 72
108.42 76
108.44 86
108.46 85
108.48 81
108.50 84
108.52 75
108.54 71
108.56 73
108.58 90
108.60 88
108.62 70
108.64 73
108.66 66
108.68 83
108.70 85
108.72 72
108.74 68
108.76 65
108.78 59
108.80 53
108.82 59
108.84 71
108.86 65
108.88 62
108.90 72
108.92 86
108.94 77
108.96 64
108.98 64
109.00 68
109.02 77
109.04 67
109.06 67
109.08 81
109.10 88
109.12 75
109.14 59
109.16 75
109.18 58
109.20 59
109.22 78
109.24 75
109.26 87
109.28 79
109.30 63
109.32 84
109.34 74
109.36 81
109.38 88
109.40 88
109.42 73
109.44 78
109.46 87
109.48 72
109.50 83
109.52 90
109.54 69
109.56 96
109.58 70
109.60 96
109.62 70
109.64 94
109.66 86
109.68 99
109.70 117
109.72 91
109.74 94
109.76 102
109.78 102
109.80 95
109.82 122
109.84 98
109.86 89
109.88 111
109.90 103
109.92 152
109.94 123
109.96 138
109.98 152
110.00 148
110.02 144
110.04 148
110.06 121
110.08 161
110.10 166
110.12 158
110.14 178
110.16 173
110.18 209
110.20 237
110.22 214
110.24 192
110.26 222
110.28 223
110.30 215
110.32 256
110.34 213
110.36 216
110.38 222
110.40 213
110.42 207
110.44 220
110.46 228
110.48 186
110.50 209
110.52 200
110.54 169
110.56 183
110.58 199
110.60 207
110.62 220
110.64 180
110.66 198
110.68 186
110.70 199
110.72 193
110.74 183
110.76 169
110.78 166
110.80 154
110.82 150
110.84 155
110.86 142
110.88 164
110.90 159
110.92 142
110.94 130
110.96 125
110.98 124
111.00 120
111.02 109
111.04 116
111.06 116
111.08 101
111.10 101
111.12 94
111.14 92
111.16 110
111.18 102
111.20 102
111.22 95
111.24 73
111.26 87
111.28 99
111.30 83
111.32 81
111.34 94
111.36 80
111.38 91
111.40 74
111.42 65
111.44 74
111.46 72
111.48 64
111.50 71
111.52 84
111.54 61
111.56 75
111.58 85
111.60 65
111.62 79
111.64 61
111.66 75
111.68 69
111.70 73
111.72 58
111.74 81
111.76 82
111.78 76
111.80 71
111.82 75
111.84 74
111.86 64
111.88 77
111.90 60
111.92 74
111.94 56
111.96 74
111.98 55
112.00 56
112.02 68
112.04 66
112.06 65
112.08 78
112.10 78
112.12 56
112.14 72
112.16 64
112.18 87
112.20 68
112.22 55
112.24 63
112.26 68
112.28 69
112.30 69
112.32 62
112.34 53
112.36 69
112.38 62
112.40 63
112.42 57
112.44 54
112.46 64
112.48 88
112.50 80
112.52 64
112.54 66
112.56 60
112.58 54
112.60 72
112.62 73
112.64 57
112.66 70
112.68 60
112.70 76
112.72 71
112.74 64
112.76 70
112.78 78
112.80 75
112.82 78
112.84 63
112.86 60
112.88 63
112.90 88
112.92 65
112.94 71
112.96 72
112.98 62
113.00 70
113.02 80
113.04 82
113.06 60
113.08 93
113.10 74
113.12 81
113.14 67
113.16 77
113.18 73
113.20 78
113.22 70
113.24 73
113.26 64
113.28 77
113.30 72
113.32 64
113.34 77
113.36 75
113.38 65
113.40 65
113.42 68
113.44 61
113.46 66
113.48 78
113.50 63
113.52 74
113.54 73
113.56 88
113.58 64
113.60 73
113.62 76
113.64 69
113.66 75
113.68 77
113.70 79
113.72 86
113.74 84
113.76 65
113.78 81
113.80 78
113.82 65
113.84 71
113.86 66
113.88 80
113.90 78
113.92 81
113.94 88
113.96 99
113.98 80
114.00 81
114.02 83
114.04 83
114.06 77
114.08 72
114.10 81
114.12 85
114.14 101
114.16 74
114.18 73
114.20 68
114.22 98
114.24 92
114.26 80
114.28 85
114.30 95
114.32 85
114.34 86
114.36 80
114.38 73
114.40 77
114.42 90
114.44 84
114.46 76
114.48 78
114.50 93
114.52 97
114.54 87
114.56 80
114.58 100
114.60 85
114.62 88
114.64 105
114.66 93
114.68 90
114.70 82
114.72 93
114.74 85
114.76 94
114.78 104
114.80 100
114.82 93
114.84 125
114.86 109
114.88 110
114.90 115
114.92 104
114.94 105
114.96 116
114.98 97
115.00 107
115.02 106
115.04 115
115.06 105
115.08 118
115.10 109
115.12 110
115.14 102
115.16 113
115.18 143
115.20 135
115.22 118
115.24 114
115.26 115
115.28 118
115.30 118
115.32 133
115.34 132
115.36 129
115.38 135
115.40 158
115.42 135
115.44 146
115.46 165
115.48 159
115.50 150
115.52 160
115.54 165
115.56 185
115.58 179
115.60 153
115.62 165
115.64 175
115.66 189
115.68 197
115.70 202
115.72 208
115.74 224
115.76 196
115.78 216
115.80 247
115.82 272
115.84 286
115.86 246
115.88 281
115.90 305
115.92 282
115.94 321
115.96 324
115.98 342
116.00 331
116.02 372
116.04 404
116.06 353
116.08 412
116.10 429
116.12 455
116.14 417
116.16 455
116.18 468
116.20 436
116.22 463
116.24 441
116.26 415
116.28 469
116.30 451
116.32 423
116.34 444
116.36 433
116.38 424
116.40 425
116.42 399
116.44 364
116.46 381
116.48 383
116.50 352
116.52 369
116.54 360
116.56 353
116.58 377
116.60 352
116.62 356
116.64 362
116.66 344
116.68 335
116.70 342
116.72 345
116.74 315
116.76 259
116.78 308
116.80 277
116.82 272
116.84 265
116.86 294
116.88 265
116.90 254
116.92 229
116.94 209
116.96 216
116.98 187
117.00 207
117.02 189
117.04 192
117.06 184
117.08 180
117.10 178
117.12 183
117.14 151
117.16 144
117.18 146
117.20 155
117.22 148
117.24 143
117.26 166
117.28 162
117.30 155
117.32 141
117.34 123
117.36 114
117.38 123
117.40 128
117.42 111
117.44 113
117.46 122
117.48 123
117.50 119
117.52 133
117.54 120
117.56 119
117.58 102
117.60 130
117.62 106
117.64 110
117.66 110
117.68 96
117.70 98
117.72 108
117.74 96
117.76 109
117.78 90
117.80 100
117.82 88
117.84 122
117.86 124
117.88 104
117.90 105
117.92 85
117.94 71
117.96 96
117.98 91
118.00 89
118.02 99
118.04 79
118.06 101
118.08 93
118.10 95
118.12 89
118.14 88
118.16 69
118.18 85
118.20 98
118.22 91
118.24 90
118.26 85
118.28 85
118.30 94
118.32 81
118.34 71
118.36 81
118.38 78
118.40 86
118.42 92
118.44 82
118.46 82
118.48 76
118.50 86
118.52 77
118.54 92
118.56 86
118.58 79
118.60 61
118.62 71
118.64 66
118.66 84
118.68 82
118.70 76
118.72 84
118.74 95
118.76 87
118.78 93
118.80 83
118.82 80
118.84 76
118.86 72
118.88 69
118.90 78
118.92 83
118.94 66
118.96 77
118.98 72
119.00 72
119.02 79
119.04 71
119.06 69
119.08 84
119.10 87
119.12 77
119.14 68
119.16 74
119.18 90
119.20 84
119.22 82
119.24 76
119.26 84
119.28 77
119.30 86
119.32 75
119.34 69
119.36 68
119.38 75
119.40 62
119.42 99
119.44 78
119.46 82
119.48 84
119.50 81
119.52 77
119.54 78
119.56 67
119.58 77
119.60 85
119.62 68
119.64 86
119.66 87
119.68 76
119.70 75
119.72 83
119.74 63
119.76 70
119.78 76
119.80 74
119.82 79
119.84 97
119.86 70
119.88 70
119.90 71
119.92 87
119.94 68
119.96 81
119.98 72
120.00 79
120.02 73
120.04 61
120.06 66
120.08 70
120.10 77
120.12 81
120.14 98
120.16 93
120.18 75
120.20 104
120.22 90
120.24 80
120.26 78
120.28 89
120.30 95
120.32 83
120.34 87
120.36 83
120.38 99
120.40 77
120.42 87
120.44 89
120.46 101
120.48 100
120.50 83
120.52 109
120.54 108
120.56 91
120.58 101
120.60 106
120.62 100
120.64 115
120.66 112
120.68 114
120.70 125
120.72 108
120.74 121
120.76 110
120.78 114
120.80 115
120.82 131
120.84 124
120.86 131
120.88 128
120.90 139
120.92 128
120.94 133
120.96 129
120.98 145
121.00 144
121.02 167
121.04 167
121.06 169
121.08 150
121.10 177
121.12 167
121.14 179
121.16 216
121.18 196
121.20 211
121.22 223
121.24 222
121.26 200
121.28 218
121.30 230
121.32 211
121.34 218
121.36 236
121.38 262
121.40 257
121.42 260
121.44 268
121.46 250
121.48 265
121.50 256
121.52 249
121.54 260
121.56 273
121.58 252
121.60 273
121.62 273
121.64 246
121.66 278
121.68 239
121.70 223
121.72 231
121.74 230
121.76 224
121.78 227
121.80 213
121.82 221
121.84 217
121.86 234
121.88 238
121.90 206
121.92 207
121.94 202
121.96 205
121.98 184
122.00 213
122.02 193
122.04 178
122.06 209
122.08 188
122.10 213
122.12 174
122.14 181
122.16 197
122.18 176
122.20 201
122.22 161
122.24 142
122.26 115
122.28 169
122.30 132
122.32 137
122.34 149
122.36 129
122.38 134
122.40 121
122.42 132
122.44 107
122.46 121
122.48 100
122.50 124
122.52 108
122.54 103
122.56 115
122.58 98
122.60 95
122.62 92
122.64 96
122.66 103
122.68 112
122.70 109
122.72 98
122.74 97
122.76 88
122.78 88
122.80 98
122.82 86
122.84 89
122.86 100
122.88 86
122.90 77
122.92 81
122.94 79
122.96 81
122.98 73
123.00 89
123.02 89
123.04 86
123.06 87
123.08 68
123.10 71
123.12 74
123.14 69
123.16 74
123.18 79
123.20 64
123.22 75
123.24 74
123.26 84
123.28 65
123.30 70
123.32 82
123.34 82
123.36 74
123.38 61
123.40 83
123.42 75
123.44 65
123.46 77
123.48 60
123.50 88
123.52 58
123.54 76
123.56 81
123.58 72
123.60 85
123.62 75
123.64 81
123.66 65
123.68 67
123.70 70
123.72 61
123.74 65
123.76 68
123.78 58
123.80 69
123.82 61
123.84 80
123.86 77
123.88 78
123.90 75
123.92 54
123.94 65
123.96 66
123.98 75
124.00 80
124.02 59
124.04 81
124.06 71
124.08 87
124.10 76
124.12 78
124.14 62
124.16 55
124.18 55
124.20 65
124.22 71
124.24 77
124.26 65
124.28 72
124.30 65
124.32 58
124.34 65
124.36 75
124.38 68
124.40 88
124.42 69
124.44 62
124.46 81
124.48 67
124.50 72
124.52 73
124.54 56
124.56 79
124.58 83
124.60 68
124.62 82
124.64 79
124.66 76
124.68 76
124.70 77
124.72 70
124.74 79
124.76 102
124.78 96
124.80 83
124.82 91
124.84 81
124.86 80
124.88 78
124.90 86
124.92 92
124.94 97
124.96 101
124.98 79
125.00 100
