26 129
26.02 137
26.04 144
26.06 135
26.08 158
26.10 158
26.12 166
26.14 143
26.16 177
26.18 154
26.20 163
26.22 160
26.24 160
26.26 147
26.28 141
26.30 140
26.32 153
26.34 154
26.36 134
26.38 158
26.40 146
26.42 153
26.44 156
26.46 141
26.48 150
26.50 162
26.52 125
26.54 155
26.56 152
26.58 128
26.60 140
26.62 138
26.64 138
26.66 139
26.68 134
26.70 131
26.72 151
26.74 118
26.76 141
26.78 125
26.80 123
26.82 136
26.84 147
26.86 129
26.88 153
26.90 132
26.92 123
26.94 144
26.96 141
26.98 138
27.00 140
27.02 146
27.04 155
27.06 125
27.08 162
27.10 156
27.12 123
27.14 130
27.16 184
27.18 135
27.20 146
27.22 142
27.24 134
27.26 136
27.28 129
27.30 130
27.32 150
27.34 146
27.36 158
27.38 143
27.40 145
27.42 164
27.44 152
27.46 165
27.48 150
27.50 169
27.52 152
27.54 152
27.56 168
27.58 172
27.60 204
27.62 190
27.64 200
27.66 177
27.68 193
27.70 211
27.72 210
27.74 233
27.76 252
27.78 231
27.80 287
27.82 235
27.84 251
27.86 270
27.88 232
27.90 212
27.92 197
27.94 205
27.96 215
27.98 214
28.00 199
28.02 180
28.04 195
28.06 171
28.08 157
28.10 185
28.12 177
28.14 154
28.16 149
28.18 179
28.20 157
28.22 181
28.24 157
28.26 168
28.28 172
28.30 166
28.32 194
28.34 140
28.36 161
28.38 172
28.40 181
28.42 168
28.44 146
28.46 169
28.48 165
28.50 156
28.52 153
28.54 144
28.56 160
28.58 170
28.60 146
28.62 172
28.64 158
28.66 180
28.68 169
28.70 176
28.72 153
28.74 186
28.76 175
28.78 182
28.80 169
28.82 171
28.84 173
28.86 159
28.88 182
28.90 198
28.92 170
28.94 168
28.96 172
28.98 183
29.00 174
29.02 181
29.04 157
29.06 158
29.08 167
29.10 172
29.12 176
29.14 163
29.16 160
29.18 192
29.20 186
29.22 160
29.24 188
29.26 160
29.28 167
29.30 143
29.32 183
29.34 187
29.36 154
29.38 156
29.40 170
29.42 182
29.44 192
29.46 160
29.48 207
29.50 188
29.52 181
29.54 183
29.56 190
29.58 203
29.60 213
29.62 182
29.64 207
29.66 196
29.68 199
29.70 216
29.72 185
29.74 216
29.76 193
29.78 191
29.80 190
29.82 205
29.84 215
29.86 223
29.88 191
29.90 232
29.92 223
29.94 242
29.96 208
29.98 204
30.00 232
30.02 253
30.04 240
30.06 225
30.08 221
30.10 235
30.12 238
30.14 255
30.16 262
30.18 250
30.20 269
30.22 254
30.24 229
30.26 255
30.28 256
30.30 233
30.32 257
30.34 259
30.36 272
30.38 278
30.40 281
30.42 296
30.44 278
30.46 283
30.48 281
30.50 275
30.52 312
30.54 318
30.56 336
30.58 347
30.60 358
30.62 357
30.64 409
30.66 404
30.68 420
30.70 406
30.72 447
30.74 448
30.76 490
30.78 502
30.80 513
30.82 572
30.84 532
30.86 515
30.88 544
30.90 582
30.92 493
30.94 526
30.96 528
30.98 518
31.00 542
31.02 543
31.04 607
31.06 578
31.08 531
31.10 636
31.12 612
31.14 646
31.16 649
31.18 723
31.20 708
31.22 741
31.24 783
31.26 844
31.28 913
31.30 919
31.32 983
31.34 1002
31.36 1098
31.38 1147
31.40 1222
31.42 1291
31.44 1432
31.46 1549
31.48 1691
31.50 1813
31.52 1944
31.54 2048
31.56 2264
31.58 2502
31.60 2536
31.62 2761
31.64 2978
31.66 3240
31.68 3399
31.70 3520
31.72 3719
31.74 3888
31.76 3755
31.78 3906
31.80 3680
31.82 3603
31.84 3545
31.86 3367
31.88 3039
31.90 3014
31.92 2826
31.94 2532
31.96 2399
31.98 2148
32.00 1947
32.02 1792
32.04 1768
32.06 1560
32.08 1539
32.10 1428
32.12 1316
32.14 1268
32.16 1190
32.18 1076
32.20 1065
32.22 1001
32.24 952
32.26 902
32.28 887
32.30 869
32.32 827
32.34 826
32.36 769
32.38 753
32.40 688
32.42 746
32.44 709
32.46 644
32.48 703
32.50 663
32.52 655
32.54 677
32.56 677
32.58 715
32.60 686
32.62 637
32.64 643
32.66 594
32.68 573
32.70 616
32.72 619
32.74 559
32.76 618
32.78 530
32.80 533
32.82 552
32.84 557
32.86 501
32.88 522
32.90 493
32.92 516
32.94 504
32.96 523
32.98 518
33.00 512
33.02 542
33.04 468
33.06 508
33.08 473
33.10 509
33.12 503
33.14 511
33.16 497
33.18 514
33.20 545
33.22 558
33.24 550
33.26 559
33.28 587
33.30 570
33.32 567
33.34 570
33.36 632
33.38 546
33.40 567
33.42 550
33.44 532
33.46 489
33.48 516
33.50 538
33.52 516
33.54 478
33.56 473
33.58 499
33.60 485
33.62 458
33.64 483
33.66 509
33.68 478
33.70 514
33.72 473
33.74 494
33.76 513
33.78 529
33.80 536
33.82 527
33.84 581
33.86 566
33.88 588
33.90 619
33.92 661
33.94 684
33.96 682
33.98 703
34.00 744
34.02 780
34.04 801
34.06 912
34.08 1006
34.10 1104
34.12 1156
34.14 1356
34.16 1432
34.18 1514
34.20 1644
34.22 1966
34.24 2153
34.26 2419
34.28 2644
34.30 2837
34.32 3349
34.34 3622
34.36 3887
34.38 4027
34.40 4318
34.42 4160
34.44 4055
34.46 3907
34.48 3801
34.50 3426
34.52 3129
34.54 2820
34.56 2553
34.58 2244
34.60 1900
34.62 1752
34.64 1640
34.66 1484
34.68 1387
34.70 1246
34.72 1143
34.74 998
34.76 957
34.78 962
34.80 880
34.82 845
34.84 833
34.86 780
34.88 758
34.90 733
34.92 717
34.94 662
34.96 701
34.98 649
35.00 678
35.02 674
35.04 621
35.06 671
35.08 620
35.10 653
35.12 661
35.14 619
35.16 658
35.18 680
35.20 703
35.22 701
35.24 682
35.26 728
35.28 717
35.30 732
35.32 777
35.34 786
35.36 753
35.38 790
35.40 780
35.42 783
35.44 820
35.46 826
35.48 798
35.50 849
35.52 926
35.54 877
35.56 927
35.58 968
35.60 965
35.62 1021
35.64 1101
35.66 1121
35.68 1115
35.70 1160
35.72 1257
35.74 1239
35.76 1335
35.78 1494
35.80 1507
35.82 1673
35.84 1711
35.86 1834
35.88 1936
35.90 2013
35.92 2265
35.94 2349
35.96 2592
35.98 2821
36.00 2989
36.02 3231
36.04 3470
36.06 3690
36.08 3920
36.10 4254
36.12 4506
36.14 5099
36.16 5110
36.18 5452
36.20 5632
36.22 5950
36.24 6113
36.26 6067
36.28 5977
36.30 5839
36.32 5703
36.34 5484
36.36 5209
36.38 4886
36.40 4609
36.42 4188
36.44 3951
36.46 3688
36.48 3346
36.50 3111
36.52 2764
36.54 2576
36.56 2390
36.58 2129
36.60 1935
36.62 1885
36.64 1762
36.66 1669
36.68 1431
36.70 1379
36.72 1223
36.74 1235
36.76 1197
36.78 1108
36.80 1045
36.82 993
36.84 937
36.86 846
36.88 871
36.90 779
36.92 740
36.94 696
36.96 676
36.98 624
37.00 607
37.02 631
37.04 578
37.06 512
37.08 564
37.10 532
37.12 522
37.14 470
37.16 474
37.18 449
37.20 496
37.22 416
37.24 443
37.26 464
37.28 437
37.30 390
37.32 368
37.34 381
37.36 401
37.38 350
37.40 389
37.42 369
37.44 356
37.46 308
37.48 341
37.50 330
37.52 312
37.54 294
37.56 313
37.58 322
37.60 309
37.62 280
37.64 282
37.66 280
37.68 288
37.70 284
37.72 289
37.74 259
37.76 270
37.78 237
37.80 263
37.82 266
37.84 249
37.86 265
37.88 256
37.90 255
37.92 256
37.94 255
37.96 273
37.98 240
38.00 234
38.02 228
38.04 231
38.06 222
38.08 239
38.10 200
38.12 210
38.14 246
38.16 212
38.18 213
38.20 232
38.22 223
38.24 222
38.26 213
38.28 209
38.30 230
38.32 208
38.34 224
38.36 246
38.38 227
38.40 209
38.42 219
38.44 211
38.46 236
38.48 237
38.50 235
38.52 230
38.54 245
38.56 229
38.58 231
38.60 247
38.62 242
38.64 261
38.66 253
38.68 226
38.70 232
38.72 249
38.74 207
38.76 212
38.78 217
38.80 184
38.82 192
38.84 200
38.86 199
38.88 180
38.90 203
38.92 185
38.94 166
38.96 198
38.98 190
39.00 213
39.02 205
39.04 178
39.06 164
39.08 159
39.10 163
39.12 179
39.14 201
39.16 144
39.18 171
39.20 137
39.22 156
39.24 146
39.26 142
39.28 155
39.30 148
39.32 123
39.34 142
39.36 144
39.38 145
39.40 163
39.42 133
39.44 134
39.46 131
39.48 153
39.50 133
39.52 171
39.54 159
39.56 133
39.58 123
39.60 137
39.62 150
39.64 134
39.66 129
39.68 128
39.70 143
39.72 142
39.74 136
39.76 128
39.78 141
39.80 144
39.82 136
39.84 122
39.86 123
39.88 148
39.90 131
39.92 133
39.94 130
39.96 152
39.98 139
40.00 140
40.02 119
40.04 121
40.06 125
40.08 108
40.10 125
40.12 137
40.14 131
40.16 105
40.18 121
40.20 119
40.22 114
40.24 141
40.26 115
40.28 127
40.30 130
40.32 114
40.34 130
40.36 118
40.38 101
40.40 118
40.42 116
40.44 123
40.46 118
40.48 129
40.50 122
40.52 110
40.54 139
40.56 135
40.58 112
40.60 120
40.62 120
40.64 118
40.66 135
40.68 125
40.70 138
40.72 140
40.74 114
40.76 112
40.78 118
40.80 102
40.82 123
40.84 101
40.86 114
40.88 145
40.90 133
40.92 128
40.94 119
40.96 127
40.98 103
41.00 119
41.02 145
41.04 135
41.06 122
41.08 101
41.10 128
41.12 132
41.14 126
41.16 136
41.18 116
41.20 120
41.22 118
41.24 150
41.26 125
41.28 125
41.30 121
41.32 124
41.34 116
41.36 108
41.38 108
41.40 131
41.42 133
41.44 130
41.46 123
41.48 123
41.50 125
41.52 131
41.54 120
41.56 144
41.58 150
41.60 132
41.62 143
41.64 125
41.66 126
41.68 131
41.70 134
41.72 163
41.74 131
41.76 134
41.78 130
41.80 133
41.82 137
41.84 130
41.86 131
41.88 137
41.90 153
41.92 152
41.94 135
41.96 127
41.98 158
42.00 154
42.02 120
42.04 104
42.06 135
42.08 143
42.10 126
42.12 145
42.14 137
42.16 140
42.18 134
42.20 124
42.22 144
42.24 143
42.26 126
42.28 149
42.30 164
42.32 136
42.34 148
42.36 122
42.38 154
42.40 164
42.42 126
42.44 142
42.46 139
42.48 155
42.50 155
42.52 131
42.54 149
42.56 135
42.58 135
42.60 129
42.62 134
42.64 128
42.66 135
42.68 122
42.70 133
42.72 110
42.74 126
42.76 142
42.78 123
42.80 120
42.82 124
42.84 122
42.86 130
42.88 118
42.90 134
42.92 118
42.94 146
42.96 133
42.98 127
43.00 109
43.02 124
43.04 114
43.06 139
43.08 112
43.10 119
43.12 123
43.14 117
43.16 130
43.18 124
43.20 99
43.22 103
43.24 100
43.26 120
43.28 97
43.30 110
43.32 119
43.34 116
43.36 110
43.38 128
43.40 98
43.42 95
43.44 109
43.46 110
43.48 102
43.50 86
43.52 111
43.54 80
43.56 109
43.58 105
43.60 90
43.62 98
43.64 99
43.66 117
43.68 106
43.70 132
43.72 76
43.74 99
43.76 111
43.78 109
43.80 99
43.82 106
43.84 100
43.86 113
43.88 101
43.90 107
43.92 101
43.94 105
43.96 122
43.98 128
44.00 114
44.02 96
44.04 103
44.06 114
44.08 115
44.10 120
44.12 109
44.14 125
44.16 104
44.18 112
44.20 95
44.22 127
44.24 100
44.26 91
44.28 103
44.30 82
44.32 130
44.34 142
44.36 109
44.38 105
44.40 113
44.42 101
44.44 85
44.46 119
44.48 91
44.50 109
44.52 99
44.54 108
44.56 88
44.58 106
44.60 113
44.62 98
44.64 95
44.66 104
44.68 94
44.70 101
44.72 102
44.74 77
44.76 118
44.78 112
44.80 102
44.82 105
44.84 105
44.86 100
44.88 106
44.90 106
44.92 119
44.94 117
44.96 109
44.98 117
45.00 104
45.02 114
45.04 96
45.06 109
45.08 99
45.10 109
45.12 110
45.14 110
45.16 105
45.18 101
45.20 103
45.22 95
45.24 115
45.26 122
45.28 121
45.30 116
45.32 128
45.34 133
45.36 115
45.38 128
45.40 102
45.42 108
45.44 113
45.46 105
45.48 125
45.50 123
45.52 135
45.54 119
45.56 131
45.58 125
45.60 122
45.62 115
45.64 129
45.66 124
45.68 146
45.70 121
45.72 147
45.74 147
45.76 133
45.78 145
45.80 131
45.82 133
45.84 144
45.86 153
45.88 137
45.90 138
45.92 129
45.94 161
45.96 145
45.98 140
46.00 145
46.02 164
46.04 157
46.06 159
46.08 167
46.10 165
46.12 167
46.14 181
46.16 158
46.18 188
46.20 185
46.22 160
46.24 182
46.26 152
46.28 170
46.30 177
46.32 181
46.34 165
46.36 165
46.38 160
46.40 185
46.42 173
46.44 187
46.46 191
46.48 192
46.50 196
46.52 202
46.54 195
46.56 200
46.58 227
46.60 218
46.62 257
46.64 240
46.66 245
46.68 262
46.70 288
46.72 261
46.74 277
46.76 256
46.78 265
46.80 270
46.82 315
46.84 327
46.86 299
46.88 322
46.90 323
46.92 363
46.94 358
46.96 387
46.98 365
47.00 409
47.02 411
47.04 427
47.06 457
47.08 412
47.10 434
47.12 485
47.14 498
47.16 525
47.18 552
47.20 598
47.22 575
47.24 618
47.26 611
47.28 694
47.30 686
47.32 755
47.34 729
47.36 798
47.38 872
47.40 899
47.42 877
47.44 965
47.46 1023
47.48 972
47.50 1007
47.52 1058
47.54 993
47.56 1028
47.58 973
47.60 978
47.62 974
47.64 939
47.66 939
47.68 893
47.70 933
47.72 896
47.74 872
47.76 783
47.78 710
47.80 755
47.82 670
47.84 672
47.86 615
47.88 595
47.90 511
47.92 554
47.94 533
47.96 485
47.98 476
48.00 418
48.02 452
48.04 396
48.06 416
48.08 379
48.10 365
48.12 367
48.14 335
48.16 327
48.18 342
48.20 312
48.22 322
48.24 297
48.26 280
48.28 308
48.30 260
48.32 273
48.34 221
48.36 250
48.38 250
48.40 222
48.42 202
48.44 234
48.46 213
48.48 223
48.50 214
48.52 232
48.54 194
48.56 220
48.58 219
48.60 190
48.62 174
48.64 192
48.66 162
48.68 159
48.70 187
48.72 170
48.74 160
48.76 156
48.78 173
48.80 177
48.82 206
48.84 180
48.86 170
48.88 153
48.90 159
48.92 167
48.94 145
48.96 163
48.98 158
49.00 153
49.02 158
49.04 173
49.06 154
49.08 157
49.10 144
49.12 170
49.14 149
49.16 156
49.18 155
49.20 156
49.22 148
49.24 148
49.26 148
49.28 149
49.30 151
49.32 134
49.34 125
49.36 126
49.38 130
49.40 144
49.42 145
49.44 124
49.46 130
49.48 146
49.50 131
49.52 147
49.54 130
49.56 132
49.58 159
49.60 137
49.62 136
49.64 123
49.66 131
49.68 146
49.70 113
49.72 121
49.74 104
49.76 108
49.78 125
49.80 147
49.82 122
49.84 110
49.86 125
49.88 112
49.90 106
49.92 136
49.94 127
49.96 112
49.98 119
50.00 116
50.02 137
50.04 123
50.06 120
50.08 120
50.10 129
50.12 128
50.14 110
50.16 107
50.18 134
50.20 114
50.22 111
50.24 119
50.26 104
50.28 114
50.30 109
50.32 113
50.34 124
50.36 104
50.38 97
50.40 101
50.42 112
50.44 105
50.46 127
50.48 114
50.50 111
50.52 104
50.54 102
50.56 115
50.58 112
50.60 99
50.62 92
50.64 110
50.66 118
50.68 120
50.70 133
50.72 107
50.74 110
50.76 81
50.78 125
50.80 112
50.82 115
50.84 110
50.86 110
50.88 117
50.90 113
50.92 117
50.94 130
50.96 113
50.98 107
51.00 99
51.02 134
51.04 98
51.06 114
51.08 115
51.10 127
51.12 91
51.14 104
51.16 118
51.18 109
51.20 104
51.22 121
51.24 122
51.26 120
51.28 115
51.30 99
51.32 109
51.34 116
51.36 97
51.38 109
51.40 125
51.42 125
51.44 115
51.46 109
51.48 104
51.50 154
51.52 109
51.54 112
51.56 124
51.58 118
51.60 109
51.62 119
51.64 132
51.66 105
51.68 124
51.70 120
51.72 124
51.74 115
51.76 114
51.78 131
51.80 109
51.82 107
51.84 102
51.86 104
51.88 112
51.90 113
51.92 111
51.94 114
51.96 125
51.98 124
52.00 85
52.02 114
52.04 130
52.06 106
52.08 124
52.10 122
52.12 132
52.14 112
52.16 108
52.18 116
52.20 126
52.22 136
52.24 119
52.26 102
52.28 126
52.30 103
52.32 112
52.34 114
52.36 112
52.38 119
52.40 117
52.42 121
52.44 126
52.46 125
52.48 96
52.50 99
52.52 104
52.54 111
52.56 112
52.58 118
52.60 123
52.62 130
52.64 123
52.66 107
52.68 107
52.70 143
52.72 132
52.74 105
52.76 131
52.78 125
52.80 115
52.82 128
52.84 131
52.86 114
52.88 131
52.90 134
52.92 119
52.94 108
52.96 116
52.98 128
53.00 120
53.02 115
53.04 139
53.06 142
53.08 118
53.10 121
53.12 118
53.14 128
53.16 149
53.18 129
53.20 131
53.22 133
53.24 141
53.26 122
53.28 119
53.30 123
53.32 134
53.34 134
53.36 123
53.38 122
53.40 152
53.42 132
53.44 149
53.46 153
53.48 125
53.50 120
53.52 145
53.54 122
53.56 139
53.58 133
53.60 122
53.62 127
53.64 143
53.66 142
53.68 125
53.70 146
53.72 133
53.74 169
53.76 150
53.78 157
53.80 148
53.82 144
53.84 131
53.86 159
53.88 161
53.90 171
53.92 169
53.94 140
53.96 139
53.98 141
54.00 154
54.02 134
54.04 154
54.06 155
54.08 160
54.10 137
54.12 153
54.14 158
54.16 157
54.18 163
54.20 135
54.22 119
54.24 146
54.26 158
54.28 153
54.30 167
54.32 154
54.34 160
54.36 150
54.38 161
54.40 153
54.42 155
54.44 160
54.46 139
54.48 149
54.50 164
54.52 172
54.54 161
54.56 153
54.58 140
54.60 170
54.62 160
54.64 157
54.66 138
54.68 153
54.70 161
54.72 158
54.74 150
54.76 145
54.78 166
54.80 167
54.82 159
54.84 168
54.86 172
54.88 144
54.90 180
54.92 164
54.94 158
54.96 147
54.98 179
55.00 194
55.02 179
55.04 149
55.06 164
55.08 158
55.10 177
55.12 156
55.14 190
55.16 158
55.18 161
55.20 158
55.22 180
55.24 202
55.26 188
55.28 178
55.30 185
55.32 171
55.34 195
55.36 197
55.38 178
55.40 187
55.42 178
55.44 192
55.46 205
55.48 179
55.50 195
55.52 204
55.54 199
55.56 244
55.58 208
55.60 234
55.62 229
55.64 232
55.66 261
55.68 234
55.70 281
55.72 252
55.74 275
55.76 279
55.78 299
55.80 291
55.82 270
55.84 300
55.86 311
55.88 300
55.90 334
55.92 392
55.94 385
55.96 358
55.98 406
56.00 407
56.02 406
56.04 449
56.06 422
56.08 495
56.10 502
56.12 555
56.14 564
56.16 581
56.18 642
56.20 676
56.22 739
56.24 764
56.26 793
56.28 860
56.30 933
56.32 978
56.34 1124
56.36 1118
56.38 1163
56.40 1327
56.42 1496
56.44 1516
56.46 1629
56.48 1725
56.50 1825
56.52 1911
56.54 1976
56.56 2022
56.58 2035
56.60 2078
56.62 2076
56.64 2039
56.66 2045
56.68 1953
56.70 1917
56.72 1861
56.74 1791
56.76 1752
56.78 1634
56.80 1464
56.82 1459
56.84 1335
56.86 1242
56.88 1274
56.90 1145
56.92 1026
56.94 974
56.96 890
56.98 878
57.00 762
57.02 772
57.04 720
57.06 624
57.08 617
57.10 608
57.12 571
57.14 534
57.16 469
57.18 481
57.20 488
57.22 483
57.24 440
57.26 410
57.28 393
57.30 390
57.32 375
57.34 395
57.36 374
57.38 373
57.40 360
57.42 360
57.44 366
57.46 311
57.48 321
57.50 360
57.52 265
57.54 307
57.56 321
57.58 271
57.60 263
57.62 262
57.64 283
57.66 287
57.68 222
57.70 240
57.72 255
57.74 241
57.76 268
57.78 215
57.80 238
57.82 204
57.84 229
57.86 216
57.88 225
57.90 213
57.92 182
57.94 188
57.96 219
57.98 173
58.00 187
58.02 197
58.04 198
58.06 170
58.08 189
58.10 193
58.12 191
58.14 192
58.16 177
58.18 156
58.20 171
58.22 157
58.24 177
58.26 157
58.28 167
58.30 157
58.32 175
58.34 149
58.36 173
58.38 175
58.40 185
58.42 164
58.44 158
58.46 142
58.48 160
58.50 170
58.52 162
58.54 160
58.56 141
58.58 182
58.60 162
58.62 178
58.64 201
58.66 178
58.68 175
58.70 181
58.72 159
58.74 167
58.76 161
58.78 186
58.80 195
58.82 158
58.84 160
58.86 186
58.88 165
58.90 185
58.92 211
58.94 172
58.96 190
58.98 192
59.00 220
59.02 203
59.04 208
59.06 156
59.08 200
59.10 185
59.12 197
59.14 204
59.16 209
59.18 203
59.20 215
59.22 211
59.24 243
59.26 223
59.28 241
59.30 252
59.32 209
59.34 207
59.36 251
59.38 200
59.40 251
59.42 243
59.44 226
59.46 239
59.48 225
59.50 242
59.52 214
59.54 234
59.56 241
59.58 251
59.60 257
59.62 265
59.64 207
59.66 234
59.68 211
59.70 219
59.72 223
59.74 228
59.76 212
59.78 217
59.80 216
59.82 223
59.84 203
59.86 241
59.88 207
59.90 215
59.92 188
59.94 212
59.96 210
59.98 190
60.00 166
60.02 183
60.04 203
60.06 211
60.08 158
60.10 182
60.12 185
60.14 176
60.16 164
60.18 158
60.20 194
60.22 178
60.24 161
60.26 167
60.28 161
60.30 193
60.32 184
60.34 177
60.36 144
60.38 156
60.40 161
60.42 178
60.44 158
60.46 143
60.48 171
60.50 143
60.52 178
60.54 139
60.56 170
60.58 167
60.60 179
60.62 178
60.64 151
60.66 159
60.68 173
60.70 177
60.72 161
60.74 169
60.76 151
60.78 147
60.80 176
60.82 151
60.84 150
60.86 155
60.88 160
60.90 151
60.92 185
60.94 169
60.96 161
60.98 166
61.00 183
61.02 183
61.04 169
61.06 171
61.08 182
61.10 173
61.12 197
61.14 185
61.16 163
61.18 169
61.20 163
61.22 195
61.24 153
61.26 184
61.28 184
61.30 191
61.32 175
61.34 194
61.36 163
61.38 186
61.40 203
61.42 196
61.44 199
61.46 170
61.48 182
61.50 226
61.52 191
61.54 188
61.56 192
61.58 190
61.60 214
61.62 198
61.64 231
61.66 243
61.68 230
61.70 202
61.72 208
61.74 221
61.76 212
61.78 237
61.80 252
61.82 246
61.84 259
61.86 237
61.88 249
61.90 241
61.92 254
61.94 272
61.96 267
61.98 268
62.00 285
62.02 300
62.04 319
62.06 297
62.08 326
62.10 314
62.12 329
62.14 370
62.16 362
62.18 364
62.20 345
62.22 376
62.24 396
62.26 410
62.28 449
62.30 482
62.32 480
62.34 508
62.36 504
62.38 523
62.40 523
62.42 634
62.44 596
62.46 616
62.48 660
62.50 685
62.52 657
62.54 777
62.56 830
62.58 834
62.60 879
62.62 952
62.64 1001
62.66 1011
62.68 1126
62.70 1162
62.72 1173
62.74 1216
62.76 1359
62.78 1285
62.80 1405
62.82 1435
62.84 1463
62.86 1517
62.88 1453
62.90 1453
62.92 1437
62.94 1523
62.96 1437
62.98 1423
63.00 1409
63.02 1340
63.04 1321
63.06 1267
63.08 1210
63.10 1216
63.12 1134
63.14 1131
63.16 1003
63.18 956
63.20 936
63.22 851
63.24 798
63.26 785
63.28 731
63.30 689
63.32 657
63.34 616
63.36 555
63.38 583
63.40 552
63.42 558
63.44 484
63.46 473
63.48 433
63.50 416
63.52 408
63.54 416
63.56 434
63.58 395
63.60 340
63.62 357
63.64 346
63.66 312
63.68 302
63.70 305
63.72 307
63.74 329
63.76 283
63.78 277
63.80 268
63.82 305
63.84 297
63.86 230
63.88 237
63.90 258
63.92 263
63.94 255
63.96 241
63.98 242
64.00 227
64.02 230
64.04 224
64.06 237
64.08 238
64.10 226
64.12 205
64.14 204
64.16 212
64.18 190
64.20 220
64.22 224
64.24 188
64.26 187
64.28 201
64.30 178
64.32 200
64.34 207
64.36 183
64.38 189
64.40 174
64.42 170
64.44 173
64.46 189
64.48 185
64.50 163
64.52 178
64.54 182
64.56 160
64.58 181
64.60 170
64.62 168
64.64 161
64.66 191
64.68 168
64.70 164
64.72 146
64.74 181
64.76 170
64.78 142
64.80 166
64.82 174
64.84 149
64.86 146
64.88 159
64.90 147
64.92 168
64.94 173
64.96 155
64.98 159
65.00 155
65.02 154
65.04 168
65.06 181
65.08 157
65.10 158
65.12 152
65.14 178
65.16 147
65.18 154
65.20 158
65.22 166
65.24 151
65.26 168
65.28 156
65.30 164
65.32 144
65.34 151
65.36 145
65.38 168
65.40 167
65.42 166
65.44 169
65.46 164
65.48 180
65.50 173
65.52 189
65.54 149
65.56 167
65.58 156
65.60 184
65.62 153
65.64 189
65.66 176
65.68 176
65.70 186
65.72 181
65.74 189
65.76 195
65.78 190
65.80 161
65.82 183
65.84 200
65.86 194
65.88 194
65.90 195
65.92 218
65.94 221
65.96 229
65.98 225
66.00 240
66.02 243
66.04 250
66.06 244
66.08 266
66.10 258
66.12 271
66.14 267
66.16 272
66.18 268
66.20 286
66.22 344
66.24 309
66.26 346
66.28 335
66.30 375
66.32 383
66.34 347
66.36 389
66.38 404
66.40 397
66.42 407
66.44 407
66.46 357
66.48 406
66.50 339
66.52 360
66.54 334
66.56 345
66.58 360
66.60 323
66.62 310
66.64 309
66.66 367
66.68 294
66.70 314
66.72 314
66.74 324
66.76 287
66.78 303
66.80 274
66.82 304
66.84 247
66.86 270
66.88 244
66.90 283
66.92 278
66.94 239
66.96 287
66.98 263
67.00 277
67.02 280
67.04 257
67.06 263
67.08 291
67.10 283
67.12 290
67.14 277
67.16 308
67.18 338
67.20 304
67.22 324
67.24 356
67.26 342
67.28 353
67.30 316
67.32 331
67.34 394
67.36 387
67.38 403
67.40 404
67.42 452
67.44 460
67.46 507
67.48 493
67.50 518
67.52 561
67.54 594
67.56 608
67.58 623
67.60 659
67.62 704
67.64 744
67.66 801
67.68 829
67.70 882
67.72 939
67.74 935
67.76 1029
67.78 1077
67.80 1113
67.82 1179
67.84 1200
67.86 1280
67.88 1281
67.90 1371
67.92 1291
67.94 1350
67.96 1387
67.98 1354
68.00 1304
68.02 1419
68.04 1416
68.06 1301
68.08 1287
68.10 1232
68.12 1236
68.14 1145
68.16 1162
68.18 1110
68.20 1002
68.22 1040
68.24 921
68.26 958
68.28 897
68.30 827
68.32 806
68.34 776
68.36 717
68.38 672
68.40 687
68.42 656
68.44 661
68.46 592
68.48 594
68.50 527
68.52 593
68.54 554
68.56 510
68.58 502
68.60 541
68.62 504
68.64 497
68.66 518
68.68 521
68.70 508
68.72 493
68.74 480
68.76 527
68.78 556
68.80 536
68.82 578
68.84 560
68.86 574
68.88 599
68.90 619
68.92 646
68.94 609
68.96 673
68.98 676
69.00 714
69.02 648
69.04 755
69.06 725
69.08 741
69.10 744
69.12 744
69.14 738
69.16 720
69.18 727
69.20 669
69.22 635
69.24 647
69.26 642
69.28 606
69.30 601
69.32 553
69.34 557
69.36 533
69.38 526
69.40 447
69.42 452
69.44 437
69.46 439
69.48 437
69.50 368
69.52 389
69.54 377
69.56 339
69.58 329
69.60 292
69.62 321
69.64 310
69.66 276
69.68 266
69.70 256
69.72 251
69.74 240
69.76 246
69.78 205
69.80 229
69.82 214
69.84 219
69.86 211
69.88 202
69.90 193
69.92 221
69.94 183
69.96 187
69.98 208
70.00 189
70.02 177
70.04 179
70.06 151
70.08 177
70.10 171
70.12 143
70.14 163
70.16 151
70.18 149
70.20 145
70.22 136
70.24 142
70.26 136
70.28 133
70.30 142
70.32 139
70.34 126
70.36 133
70.38 132
70.40 125
70.42 138
70.44 128
70.46 138
70.48 127
70.50 135
70.52 105
70.54 126
70.56 118
70.58 124
70.60 106
70.62 112
70.64 93
70.66 111
70.68 122
70.70 116
70.72 111
70.74 140
70.76 103
70.78 105
70.80 108
70.82 107
70.84 109
70.86 100
70.88 103
70.90 114
70.92 115
70.94 103
70.96 105
70.98 111
71.00 88
71.02 104
71.04 84
71.06 110
71.08 107
71.10 113
71.12 91
71.14 95
71.16 84
71.18 96
71.20 113
71.22 93
71.24 87
71.26 101
71.28 96
71.30 95
71.32 109
71.34 101
71.36 116
71.38 97
71.40 104
71.42 102
71.44 85
71.46 95
71.48 105
71.50 122
71.52 86
71.54 96
71.56 99
71.58 99
71.60 89
71.62 117
71.64 88
71.66 106
71.68 87
71.70 105
71.72 118
71.74 93
71.76 104
71.78 93
71.80 102
71.82 99
71.84 98
71.86 108
71.88 85
71.90 102
71.92 100
71.94 105
71.96 101
71.98 99
72.00 96
72.02 84
72.04 93
72.06 107
72.08 105
72.10 105
72.12 117
72.14 104
72.16 110
72.18 143
72.20 108
72.22 123
72.24 127
72.26 134
72.28 115
72.30 132
72.32 152
72.34 154
72.36 142
72.38 150
72.40 153
72.42 169
72.44 164
72.46 186
72.48 169
72.50 188
72.52 178
72.54 179
72.56 162
72.58 194
72.60 190
72.62 201
72.64 189
72.66 192
72.68 188
72.70 160
72.72 168
72.74 155
72.76 147
72.78 156
72.80 178
72.82 150
72.84 153
72.86 159
72.88 132
72.90 120
72.92 138
72.94 117
72.96 130
72.98 106
73.00 121
73.02 79
73.04 112
73.06 120
73.08 111
73.10 101
73.12 96
73.14 106
73.16 105
73.18 88
73.20 121
73.22 89
73.24 93
73.26 111
73.28 80
73.30 98
73.32 105
73.34 94
73.36 103
73.38 88
73.40 82
73.42 93
73.44 96
73.46 94
73.48 82
73.50 74
73.52 64
73.54 82
73.56 80
73.58 91
73.60 99
73.62 82
73.64 73
73.66 81
73.68 90
73.70 68
73.72 81
73.74 69
73.76 84
73.78 67
73.80 76
73.82 77
73.84 88
73.86 76
73.88 74
73.90 71
73.92 75
73.94 74
73.96 79
73.98 71
74.00 83
74.02 74
74.04 61
74.06 68
74.08 72
74.10 85
74.12 53
74.14 82
74.16 76
74.18 75
74.20 76
74.22 72
74.24 75
74.26 83
74.28 70
74.30 64
74.32 59
74.34 70
74.36 71
74.38 67
74.40 80
74.42 72
74.44 64
74.46 80
74.48 71
74.50 81
74.52 68
74.54 88
74.56 66
74.58 77
74.60 63
74.62 73
74.64 89
74.66 93
74.68 67
74.70 86
74.72 87
74.74 64
74.76 62
74.78 68
74.80 58
74.82 65
74.84 82
74.86 76
74.88 86
74.90 77
74.92 65
74.94 70
74.96 80
74.98 71
75.00 89
75.02 83
75.04 77
75.06 84
75.08 78
75.10 75
75.12 81
75.14 74
75.16 61
75.18 73
75.20 64
75.22 73
75.24 62
75.26 79
75.28 78
75.30 60
75.32 72
75.34 69
75.36 85
75.38 70
75.40 66
75.42 69
75.44 65
75.46 86
75.48 81
75.50 75
75.52 70
75.54 58
75.56 84
75.58 78
75.60 75
75.62 77
75.64 58
75.66 78
75.68 73
75.70 70
75.72 84
75.74 64
75.76 71
75.78 89
75.80 88
75.82 69
75.84 97
75.86 78
75.88 87
75.90 89
75.92 69
75.94 90
75.96 78
75.98 72
76.00 76
76.02 76
76.04 106
76.06 100
76.08 90
76.10 102
76.12 69
76.14 93
76.16 103
76.18 77
76.20 89
76.22 75
76.24 112
76.26 89
76.28 94
76.30 114
76.32 105
76.34 80
76.36 111
76.38 107
76.40 92
76.42 110
76.44 127
76.46 93
76.48 117
76.50 122
76.52 129
76.54 153
76.56 120
76.58 126
76.60 130
76.62 155
76.64 117
76.66 155
76.68 189
76.70 146
76.72 147
76.74 158
76.76 158
76.78 179
76.80 172
76.82 174
76.84 190
76.86 202
76.88 182
76.90 198
76.92 191
76.94 224
76.96 220
76.98 212
77.00 166
77.02 217
77.04 178
77.06 212
77.08 181
77.10 204
77.12 181
77.14 178
77.16 200
77.18 200
77.20 196
77.22 151
77.24 170
77.26 175
77.28 176
77.30 167
77.32 149
77.34 149
77.36 137
77.38 143
77.40 150
77.42 117
77.44 139
77.46 122
77.48 133
77.50 142
77.52 107
77.54 115
77.56 115
77.58 113
77.60 111
77.62 121
77.64 107
77.66 110
77.68 109
77.70 94
77.72 93
77.74 109
77.76 93
77.78 88
77.80 115
77.82 74
77.84 70
77.86 87
77.88 89
77.90 88
77.92 84
77.94 76
77.96 89
77.98 86
78.00 93
78.02 71
78.04 79
78.06 83
78.08 64
78.10 82
78.12 84
78.14 86
78.16 93
78.18 86
78.20 69
78.22 76
78.24 76
78.26 64
78.28 90
78.30 79
78.32 74
78.34 61
78.36 70
78.38 80
78.40 77
78.42 77
78.44 79
78.46 48
78.48 80
78.50 71
78.52 66
78.54 60
78.56 66
78.58 72
78.60 78
78.62 73
78.64 71
78.66 63
78.68 77
78.70 71
78.72 73
78.74 65
78.76 68
78.78 58
78.80 75
78.82 66
78.84 55
78.86 56
78.88 70
78.90 69
78.92 74
78.94 68
78.96 67
78.98 54
79.00 75
79.02 73
79.04 72
79.06 54
79.08 62
79.10 64
79.12 84
79.14 68
79.16 73
79.18 58
79.20 70
79.22 77
79.24 60
79.26 71
79.28 76
79.30 68
79.32 68
79.34 68
79.36 61
79.38 65
79.40 64
79.42 61
79.44 68
79.46 72
79.48 77
79.50 63
79.52 72
79.54 78
79.56 68
79.58 66
79.60 54
79.62 49
79.64 63
79.66 59
79.68 62
79.70 66
79.72 81
79.74 62
79.76 65
79.78 57
79.80 58
79.82 61
79.84 69
79.86 74
79.88 60
79.90 60
79.92 53
79.94 56
79.96 53
79.98 71
80.00 61
80.02 58
80.04 70
80.06 64
80.08 62
80.10 61
80.12 61
80.14 59
80.16 49
80.18 57
80.20 73
80.22 74
80.24 61
80.26 57
80.28 63
80.30 65
80.32 75
80.34 72
80.36 56
80.38 61
80.40 80
80.42 69
80.44 78
80.46 68
80.48 87
80.50 68
80.52 58
80.54 55
80.56 77
80.58 72
80.60 78
80.62 81
80.64 81
80.66 83
80.68 80
80.70 79
80.72 71
80.74 75
80.76 71
80.78 84
80.80 88
80.82 75
80.84 68
80.86 75
80.88 84
80.90 87
80.92 83
80.94 101
80.96 87
80.98 92
81.00 95
81.02 83
81.04 98
81.06 83
81.08 94
81.10 79
81.12 95
81.14 88
81.16 94
81.18 100
81.20 97
81.22 82
81.24 96
81.26 105
81.28 113
81.30 94
81.32 93
81.34 109
81.36 117
81.38 117
81.40 110
81.42 104
81.44 112
81.46 136
81.48 120
81.50 127
81.52 129
81.54 133
81.56 101
81.58 106
81.60 104
81.62 107
81.64 111
81.66 106
81.68 95
81.70 110
81.72 115
81.74 93
81.76 112
81.78 119
81.80 100
81.82 104
81.84 114
81.86 96
81.88 83
81.90 78
81.92 85
81.94 94
81.96 86
81.98 85
82.00 86
82.02 91
82.04 66
82.06 79
82.08 90
82.10 75
82.12 86
82.14 76
82.16 99
82.18 74
82.20 76
82.22 80
82.24 85
82.26 81
82.28 82
82.30 64
82.32 77
82.34 61
82.36 75
82.38 85
82.40 89
82.42 74
82.44 79
82.46 65
82.48 71
82.50 71
82.52 83
82.54 78
82.56 82
82.58 73
82.60 72
82.62 78
82.64 71
82.66 81
82.68 46
82.70 72
82.72 81
82.74 72
82.76 70
82.78 74
82.80 64
82.82 74
82.84 81
82.86 67
82.88 63
82.90 60
82.92 62
82.94 81
82.96 65
82.98 59
83.00 66
83.02 73
83.04 73
83.06 65
83.08 70
83.10 83
83.12 68
83.14 69
83.16 62
83.18 75
83.20 69
83.22 83
83.24 50
83.26 61
83.28 54
83.30 68
83.32 65
83.34 79
83.36 64
83.38 45
83.40 60
83.42 62
83.44 80
83.46 64
83.48 66
83.50 53
83.52 62
83.54 63
83.56 47
83.58 67
83.60 52
83.62 60
83.64 66
83.66 72
83.68 58
83.70 67
83.72 58
83.74 66
83.76 64
83.78 60
83.80 64
83.82 57
83.84 56
83.86 75
83.88 58
83.90 53
83.92 51
83.94 77
83.96 79
83.98 53
84.00 57
84.02 59
84.04 63
84.06 53
84.08 55
84.10 72
84.12 67
84.14 68
84.16 58
84.18 65
84.20 71
84.22 58
84.24 49
84.26 63
84.28 62
84.30 52
84.32 59
84.34 61
84.36 47
84.38 66
84.40 68
84.42 68
84.44 45
84.46 65
84.48 56
84.50 70
84.52 64
84.54 56
84.56 52
84.58 62
84.60 56
84.62 61
84.64 68
84.66 60
84.68 46
84.70 56
84.72 58
84.74 47
84.76 52
84.78 66
84.80 49
84.82 52
84.84 60
84.86 40
84.88 55
84.90 50
84.92 63
84.94 57
84.96 72
84.98 55
85.00 56
85.02 42
85.04 60
85.06 60
85.08 59
85.10 58
85.12 72
85.14 49
85.16 41
85.18 75
85.20 71
85.22 65
85.24 56
85.26 62
85.28 64
85.30 53
85.32 72
85.34 48
85.36 59
85.38 61
85.40 57
85.42 68
85.44 68
85.46 51
85.48 60
85.50 61
85.52 57
85.54 59
85.56 56
85.58 59
85.60 71
85.62 64
85.64 54
85.66 60
85.68 68
85.70 60
85.72 52
85.74 73
85.76 55
85.78 56
85.80 56
85.82 60
85.84 51
85.86 48
85.88 58
85.90 62
85.92 73
85.94 53
85.96 61
85.98 62
86.00 51
86.02 61
86.04 55
86.06 58
86.08 58
86.10 67
86.12 57
86.14 59
86.16 61
86.18 56
86.20 45
86.22 62
86.24 56
86.26 59
86.28 67
86.30 71
86.32 46
86.34 66
86.36 60
86.38 55
86.40 42
86.42 59
86.44 59
86.46 65
86.48 58
86.50 74
86.52 67
86.54 48
86.56 54
86.58 57
86.60 69
86.62 62
86.64 65
86.66 53
86.68 57
86.70 55
86.72 54
86.74 60
86.76 57
86.78 70
86.80 63
86.82 77
86.84 66
86.86 72
86.88 58
86.90 68
86.92 71
86.94 52
86.96 82
86.98 63
87.00 56
87.02 78
87.04 66
87.06 55
87.08 61
87.10 71
87.12 60
87.14 69
87.16 64
87.18 70
87.20 65
87.22 70
87.24 54
87.26 72
87.28 76
87.30 74
87.32 75
87.34 56
87.36 60
87.38 77
87.40 75
87.42 68
87.44 70
87.46 56
87.48 51
87.50 58
87.52 72
87.54 74
87.56 72
87.58 74
87.60 70
87.62 65
87.64 73
87.66 57
87.68 66
87.70 71
87.72 69
87.74 63
87.76 72
87.78 68
87.80 70
87.82 66
87.84 92
87.86 84
87.88 77
87.90 67
87.92 91
87.94 78
87.96 86
87.98 73
88.00 71
88.02 81
88.04 93
88.06 78
88.08 76
88.10 67
88.12 66
88.14 88
88.16 66
88.18 91
88.20 79
88.22 65
88.24 97
88.26 87
88.28 72
88.30 70
88.32 80
88.34 93
88.36 99
88.38 98
88.40 90
88.42 110
88.44 116
88.46 95
88.48 93
88.50 97
88.52 82
88.54 104
88.56 82
88.58 103
88.60 110
88.62 108
88.64 109
88.66 100
88.68 114
88.70 110
88.72 111
88.74 122
88.76 124
88.78 105
88.80 138
88.82 114
88.84 117
88.86 146
88.88 146
88.90 136
88.92 122
88.94 148
88.96 153
88.98 169
89.00 138
89.02 177
89.04 153
89.06 179
89.08 192
89.10 175
89.12 171
89.14 205
89.16 213
89.18 192
89.20 183
89.22 183
89.24 221
89.26 221
89.28 242
89.30 237
89.32 273
89.34 274
89.36 282
89.38 278
89.40 261
89.42 301
89.44 308
89.46 339
89.48 315
89.50 305
89.52 342
89.54 335
89.56 349
89.58 338
89.60 359
89.62 357
89.64 346
89.66 356
89.68 325
89.70 342
89.72 378
89.74 357
89.76 328
89.78 336
89.80 339
89.82 334
89.84 340
89.86 295
89.88 347
89.90 316
89.92 269
89.94 300
89.96 270
89.98 258
90.00 260
90.02 263
90.04 272
90.06 239
90.08 238
90.10 243
90.12 247
90.14 230
90.16 209
90.18 211
90.20 192
90.22 211
90.24 176
90.26 218
90.28 180
90.30 182
90.32 194
90.34 174
90.36 161
90.38 145
90.40 151
90.42 142
90.44 151
90.46 135
90.48 153
90.50 126
90.52 120
90.54 129
90.56 130
90.58 122
90.60 127
90.62 128
90.64 138
90.66 123
90.68 120
90.70 101
90.72 112
90.74 102
90.76 106
90.78 113
90.80 122
90.82 105
90.84 109
90.86 105
90.88 101
90.90 103
90.92 99
90.94 93
90.96 110
90.98 89
91.00 108
91.02 91
91.04 109
91.06 92
91.08 100
91.10 99
91.12 97
91.14 105
91.16 86
91.18 89
91.20 101
91.22 100
91.24 79
91.26 92
91.28 91
91.30 93
91.32 104
91.34 102
91.36 86
91.38 100
91.40 92
91.42 93
91.44 93
91.46 92
91.48 110
91.50 84
91.52 101
91.54 95
91.56 89
91.58 88
91.60 90
91.62 99
91.64 102
91.66 112
91.68 87
91.70 86
91.72 100
91.74 96
91.76 92
91.78 84
91.80 87
91.82 84
91.84 90
91.86 103
91.88 92
91.90 93
91.92 109
91.94 89
91.96 97
91.98 117
92.00 113
92.02 105
92.04 110
92.06 113
92.08 99
92.10 113
92.12 121
92.14 100
92.16 118
92.18 99
92.20 103
92.22 123
92.24 117
92.26 125
92.28 124
92.30 136
92.32 123
92.34 136
92.36 139
92.38 123
92.40 134
92.42 147
92.44 117
92.46 139
92.48 125
92.50 165
92.52 176
92.54 166
92.56 158
92.58 173
92.60 182
92.62 195
92.64 155
92.66 186
92.68 176
92.70 143
92.72 201
92.74 200
92.76 184
92.78 195
92.80 150
92.82 193
92.84 163
92.86 202
92.88 182
92.90 189
92.92 182
92.94 176
92.96 191
92.98 180
93.00 182
93.02 176
93.04 196
93.06 180
93.08 154
93.10 180
93.12 158
93.14 162
93.16 144
93.18 143
93.20 155
93.22 158
93.24 140
93.26 163
93.28 152
93.30 136
93.32 142
93.34 135
93.36 132
93.38 120
93.40 141
93.42 122
93.44 107
93.46 127
93.48 128
93.50 132
93.52 122
93.54 122
93.56 122
93.58 115
93.60 126
93.62 129
93.64 101
93.66 124
93.68 115
93.70 113
93.72 123
93.74 118
93.76 97
93.78 104
93.80 120
93.82 130
93.84 113
93.86 119
93.88 122
93.90 100
93.92 113
93.94 104
93.96 123
93.98 120
94.00 107
94.02 125
94.04 108
94.06 118
94.08 122
94.10 104
94.12 88
94.14 115
94.16 100
94.18 112
94.20 114
94.22 113
94.24 122
94.26 124
94.28 113
94.30 123
94.32 126
94.34 128
94.36 142
94.38 139
94.40 128
94.42 139
94.44 155
94.46 159
94.48 161
94.50 145
94.52 147
94.54 156
94.56 163
94.58 145
94.60 142
94.62 170
94.64 170
94.66 157
94.68 186
94.70 158
94.72 189
94.74 171
94.76 208
94.78 196
94.80 183
94.82 218
94.84 202
94.86 240
94.88 209
94.90 239
94.92 257
94.94 254
94.96 252
94.98 264
95.00 287
95.02 302
95.04 289
95.06 311
95.08 314
95.10 324
95.12 337
95.14 340
95.16 393
95.18 386
95.20 351
95.22 379
95.24 376
95.26 392
95.28 396
95.30 400
95.32 376
95.34 383
95.36 380
95.38 422
95.40 375
95.42 419
95.44 381
95.46 376
95.48 385
95.50 357
95.52 360
95.54 343
95.56 314
95.58 364
95.60 325
95.62 342
95.64 286
95.66 320
95.68 303
95.70 311
95.72 259
95.74 290
95.76 278
95.78 263
95.80 256
95.82 268
95.84 245
95.86 241
95.88 218
95.90 229
95.92 224
95.94 219
95.96 198
95.98 184
96.00 184
96.02 195
96.04 176
96.06 181
96.08 180
96.10 184
96.12 162
96.14 155
96.16 156
96.18 162
96.20 143
96.22 134
96.24 144
96.26 131
96.28 111
96.30 129
96.32 125
96.34 140
96.36 144
96.38 132
96.40 133
96.42 132
96.44 124
96.46 122
96.48 121
96.50 121
96.52 123
96.54 109
96.56 115
96.58 124
96.60 123
96.62 112
96.64 115
96.66 88
96.68 112
96.70 121
96.72 107
96.74 111
96.76 106
96.78 117
96.80 106
96.82 105
96.84 118
96.86 119
96.88 95
96.90 104
96.92 108
96.94 95
96.96 94
96.98 94
97.00 104
97.02 109
97.04 103
97.06 103
97.08 87
97.10 112
97.12 99
97.14 102
97.16 100
97.18 87
97.20 122
97.22 92
97.24 101
97.26 99
97.28 89
97.30 105
97.32 112
97.34 106
97.36 87
97.38 98
97.40 92
97.42 110
97.44 93
97.46 83
97.48 102
97.50 113
97.52 103
97.54 109
97.56 94
97.58 98
97.60 104
97.62 81
97.64 91
97.66 106
97.68 114
97.70 113
97.72 125
97.74 105
97.76 105
97.78 116
97.80 107
97.82 106
97.84 113
97.86 108
97.88 113
97.90 118
97.92 116
97.94 115
97.96 115
97.98 124
98.00 135
98.02 125
98.04 133
98.06 136
98.08 125
98.10 142
98.12 132
98.14 159
98.16 160
98.18 133
98.20 157
98.22 148
98.24 158
98.26 159
98.28 156
98.30 176
98.32 224
98.34 165
98.36 190
98.38 205
98.40 190
98.42 213
98.44 211
98.46 199
98.48 229
98.50 238
98.52 238
98.54 202
98.56 232
98.58 247
98.60 221
98.62 227
98.64 243
98.66 238
98.68 255
98.70 237
98.72 235
98.74 220
98.76 242
98.78 262
98.80 236
98.82 257
98.84 235
98.86 235
98.88 225
98.90 224
98.92 213
98.94 209
98.96 205
98.98 205
99.00 208
99.02 202
99.04 195
99.06 172
99.08 197
99.10 167
99.12 205
99.14 177
99.16 164
99.18 154
99.20 172
99.22 155
99.24 172
99.26 159
99.28 135
99.30 142
99.32 128
99.34 127
99.36 133
99.38 130
99.40 135
99.42 108
99.44 114
99.46 119
99.48 125
99.50 112
99.52 126
99.54 119
99.56 118
99.58 129
99.60 121
99.62 107
99.64 91
99.66 111
99.68 96
99.70 101
99.72 93
99.74 106
99.76 101
99.78 80
99.80 99
99.82 109
99.84 96
99.86 101
99.88 100
99.90 81
99.92 74
99.94 96
99.96 83
99.98 83
100.00 95
100.02 86
100.04 86
100.06 89
100.08 84
100.10 82
100.12 82
100.14 75
100.16 104
100.18 76
100.20 72
100.22 107
100.24 77
100.26 100
100.28 80
100.30 87
100.32 70
100.34 73
100.36 84
100.38 82
100.40 86
100.42 88
100.44 90
100.46 81
100.48 79
100.50 64
100.52 80
100.54 93
100.56 78
100.58 71
100.60 91
100.62 87
100.64 80
100.66 91
100.68 81
100.70 83
100.72 88
100.74 78
100.76 78
100.78 73
100.80 78
100.82 78
100.84 92
100.86 78
100.88 77
100.90 83
100.92 84
100.94 85
100.96 95
100.98 85
101.00 71
101.02 87
101.04 94
101.06 99
101.08 106
101.10 68
101.12 93
101.14 82
101.16 71
101.18 90
101.20 78
101.22 89
101.24 75
101.26 94
101.28 90
101.30 86
101.32 88
101.34 83
101.36 84
101.38 84
101.40 84
101.42 89
101.44 90
101.46 96
101.48 104
101.50 87
101.52 100
101.54 93
101.56 86
101.58 78
101.60 99
101.62 113
101.64 105
101.66 85
101.68 99
101.70 86
101.72 95
101.74 84
101.76 98
101.78 106
101.80 111
101.82 93
101.84 106
101.86 97
101.88 108
101.90 81
101.92 109
101.94 106
101.96 101
101.98 104
102.00 106
102.02 80
102.04 94
102.06 118
102.08 106
102.10 97
102.12 118
102.14 116
102.16 106
102.18 110
102.20 101
102.22 109
102.24 119
102.26 105
102.28 121
102.30 119
102.32 134
102.34 116
102.36 124
102.38 137
102.40 150
102.42 135
102.44 129
102.46 137
102.48 147
102.50 151
102.52 144
102.54 152
102.56 160
102.58 146
102.60 148
102.62 185
102.64 162
102.66 163
102.68 144
102.70 163
102.72 167
102.74 173
102.76 160
102.78 173
102.80 169
102.82 186
102.84 204
102.86 196
102.88 193
102.90 180
102.92 223
102.94 200
102.96 198
102.98 177
103.00 187
103.02 203
103.04 218
103.06 186
103.08 178
103.10 163
103.12 173
103.14 189
103.16 179
103.18 190
103.20 202
103.22 198
103.24 212
103.26 202
103.28 179
103.30 169
103.32 175
103.34 192
103.36 200
103.38 188
103.40 177
103.42 196
103.44 192
103.46 184
103.48 167
103.50 185
103.52 174
103.54 194
103.56 192
103.58 190
103.60 201
103.62 194
103.64 199
103.66 208
103.68 193
103.70 214
103.72 189
103.74 222
103.76 224
103.78 211
103.80 216
103.82 221
103.84 231
103.86 232
103.88 247
103.90 221
103.92 225
103.94 238
103.96 246
103.98 274
104.00 279
104.02 277
104.04 259
104.06 282
104.08 279
104.10 278
104.12 284
104.14 302
104.16 273
104.18 277
104.20 249
104.22 285
104.24 294
104.26 277
104.28 251
104.30 289
104.32 272
104.34 279
104.36 257
104.38 270
104.40 262
104.42 257
104.44 229
104.46 281
104.48 231
104.50 266
104.52 233
104.54 237
104.56 257
104.58 268
104.60 260
104.62 245
104.64 224
104.66 219
104.68 203
104.70 196
104.72 202
104.74 199
104.76 182
104.78 172
104.80 176
104.82 199
104.84 179
104.86 174
104.88 154
104.90 163
104.92 145
104.94 150
104.96 156
104.98 147
105.00 137
105.02 138
105.04 144
105.06 143
105.08 142
105.10 125
105.12 138
105.14 128
105.16 122
105.18 139
105.20 120
105.22 129
105.24 106
105.26 124
105.28 107
105.30 103
105.32 107
105.34 119
105.36 121
105.38 106
105.40 109
105.42 111
105.44 92
105.46 106
105.48 84
105.50 94
105.52 96
105.54 97
105.56 95
105.58 85
105.60 85
105.62 93
105.64 107
105.66 91
105.68 85
105.70 102
105.72 88
105.74 95
105.76 102
105.78 83
105.80 104
105.82 73
105.84 93
105.86 85
105.88 93
105.90 79
105.92 98
105.94 89
105.96 90
105.98 89
106.00 99
106.02 98
106.04 75
106.06 80
106.08 93
106.10 97
106.12 86
106.14 78
106.16 84
106.18 86
106.20 97
106.22 111
106.24 84
106.26 79
106.28 88
106.30 92
106.32 93
106.34 88
106.36 89
106.38 85
106.40 81
106.42 83
106.44 79
106.46 82
106.48 83
106.50 75
106.52 87
106.54 72
106.56 89
106.58 102
106.60 86
106.62 85
106.64 78
106.66 89
106.68 89
106.70 81
106.72 80
106.74 77
106.76 84
106.78 95
106.80 81
106.82 74
106.84 81
106.86 78
106.88 86
106.90 99
106.92 91
106.94 77
106.96 94
106.98 75
107.00 90
107.02 83
107.04 92
107.06 80
107.08 83
107.10 102
107.12 80
107.14 91
107.16 87
107.18 89
107.20 80
107.22 87
107.24 103
107.26 85
107.28 81
107.30 101
107.32 102
107.34 89
107.36 107
107.38 99
107.40 103
107.42 93
107.44 95
107.46 87
107.48 91
107.50 114
107.52 133
107.54 95
107.56 105
107.58 96
107.60 80
107.62 98
107.64 93
107.66 95
107.68 74
107.70 96
107.72 105
107.74 79
107.76 100
107.78 83
107.80 81
107.82 99
107.84 84
107.86 84
107.88 92
107.90 90
107.92 99
107.94 91
107.96 84
107.98 98
108.00 96
108.02 97
108.04 71
108.06 113
108.08 86
108.10 79
108.12 72
108.14 107
108.16 86
108.18 89
108.20 89
108.22 96
108.24 93
108.26 98
108.28 93
108.30 75
108.32 80
108.34 96
108.36 95
108.38 92
108.40 79
108.42 81
108.44 83
108.46 77
108.48 83
108.50 71
108.52 79
108.54 82
108.56 103
108.58 83
108.60 74
108.62 93
108.64 77
108.66 94
108.68 85
108.70 80
108.72 86
108.74 100
108.76 70
108.78 86
108.80 93
108.82 67
108.84 85
108.86 66
108.88 91
108.90 96
108.92 87
108.94 62
108.96 71
108.98 81
109.00 70
109.02 80
109.04 87
109.06 96
109.08 95
109.10 91
109.12 70
109.14 87
109.16 88
109.18 74
109.20 72
109.22 94
109.24 99
109.26 80
109.28 74
109.30 85
109.32 93
109.34 88
109.36 82
109.38 90
109.40 100
109.42 75
109.44 110
109.46 99
109.48 82
109.50 106
109.52 95
109.54 106
109.56 118
109.58 104
109.60 98
109.62 109
109.64 104
109.66 95
109.68 121
109.70 111
109.72 121
109.74 116
109.76 111
109.78 109
109.80 118
109.82 134
109.84 111
109.86 137
109.88 122
109.90 123
109.92 152
109.94 131
109.96 124
109.98 124
110.00 167
110.02 149
110.04 157
110.06 160
110.08 139
110.10 169
110.12 157
110.14 151
110.16 154
110.18 167
110.20 165
110.22 195
110.24 185
110.26 167
110.28 200
110.30 193
110.32 197
110.34 196
110.36 191
110.38 203
110.40 188
110.42 193
110.44 182
110.46 198
110.48 195
110.50 186
110.52 210
110.54 205
110.56 192
110.58 200
110.60 162
110.62 189
110.64 183
110.66 176
110.68 175
110.70 166
110.72 174
110.74 168
110.76 178
110.78 187
110.80 164
110.82 165
110.84 174
110.86 149
110.88 130
110.90 145
110.92 150
110.94 155
110.96 130
110.98 164
111.00 159
111.02 165
111.04 120
111.06 134
111.08 119
111.10 119
111.12 119
111.14 122
111.16 119
111.18 113
111.20 125
111.22 104
111.24 131
111.26 105
111.28 98
111.30 117
111.32 119
111.34 103
111.36 106
111.38 93
111.40 97
111.42 98
111.44 97
111.46 100
111.48 97
111.50 102
111.52 92
111.54 84
111.56 109
111.58 83
111.60 79
111.62 75
111.64 79
111.66 76
111.68 90
111.70 87
111.72 92
111.74 79
111.76 89
111.78 73
111.80 86
111.82 85
111.84 95
111.86 88
111.88 99
111.90 81
111.92 80
111.94 105
111.96 75
111.98 91
112.00 69
112.02 78
112.04 84
112.06 67
112.08 76
112.10 81
112.12 64
112.14 80
112.16 75
112.18 82
112.20 73
112.22 78
112.24 90
112.26 84
112.28 84
112.30 75
112.32 72
112.34 67
112.36 68
112.38 63
112.40 76
112.42 71
112.44 67
112.46 92
112.48 65
112.50 58
112.52 78
112.54 87
112.56 71
112.58 75
112.60 79
112.62 78
112.64 75
112.66 72
112.68 70
112.70 90
112.72 93
112.74 68
112.76 76
112.78 77
112.80 78
112.82 79
112.84 77
112.86 72
112.88 89
112.90 83
112.92 84
112.94 79
112.96 72
112.98 84
113.00 70
113.02 82
113.04 86
113.06 62
113.08 82
113.10 72
113.12 67
113.14 77
113.16 69
113.18 82
113.20 84
113.22 73
113.24 72
113.26 86
113.28 78
113.30 86
113.32 77
113.34 75
113.36 80
113.38 86
113.40 83
113.42 83
113.44 87
113.46 82
113.48 73
113.50 89
113.52 98
113.54 80
113.56 74
113.58 82
113.60 75
113.62 88
113.64 80
113.66 92
113.68 84
113.70 81
113.72 85
113.74 72
113.76 76
113.78 104
113.80 89
113.82 74
113.84 107
113.86 83
113.88 99
113.90 85
113.92 75
113.94 99
113.96 78
113.98 74
114.00 87
114.02 77
114.04 92
114.06 82
114.08 93
114.10 96
114.12 89
114.14 75
114.16 90
114.18 106
114.20 82
114.22 105
114.24 91
114.26 95
114.28 73
114.30 107
114.32 78
114.34 84
114.36 89
114.38 86
114.40 102
114.42 98
114.44 105
114.46 86
114.48 108
114.50 100
114.52 90
114.54 109
114.56 95
114.58 114
114.60 119
114.62 108
114.64 88
114.66 121
114.68 72
114.70 92
114.72 99
114.74 107
114.76 108
114.78 117
114.80 116
114.82 111
114.84 108
114.86 119
114.88 114
114.90 101
114.92 116
114.94 115
114.96 120
114.98 127
115.00 125
115.02 119
115.04 113
115.06 113
115.08 116
115.10 134
115.12 116
115.14 137
115.16 139
115.18 118
115.20 111
115.22 122
115.24 139
115.26 128
115.28 144
115.30 139
115.32 150
115.34 114
115.36 130
115.38 150
115.40 174
115.42 161
115.44 146
115.46 145
115.48 173
115.50 180
115.52 186
115.54 185
115.56 170
115.58 174
115.60 190
115.62 183
115.64 192
115.66 176
115.68 197
115.70 208
115.72 218
115.74 209
115.76 230
115.78 236
115.80 221
115.82 271
115.84 232
115.86 238
115.88 242
115.90 224
115.92 273
115.94 284
115.96 253
115.98 273
116.00 285
116.02 286
116.04 306
116.06 277
116.08 310
116.10 273
116.12 317
116.14 312
116.16 313
116.18 346
116.20 282
116.22 308
116.24 330
116.26 357
116.28 356
116.30 347
116.32 339
116.34 346
116.36 371
116.38 355
116.40 353
116.42 339
116.44 335
116.46 360
116.48 334
116.50 349
116.52 323
116.54 345
116.56 319
116.58 327
116.60 302
116.62 342
116.64 297
116.66 327
116.68 313
116.70 308
116.72 300
116.74 276
116.76 279
116.78 260
116.80 324
116.82 254
116.84 269
116.86 261
116.88 256
116.90 266
116.92 264
116.94 246
116.96 231
116.98 257
117.00 267
117.02 228
117.04 222
117.06 210
117.08 207
117.10 224
117.12 212
117.14 190
117.16 202
117.18 192
117.20 212
117.22 196
117.24 181
117.26 193
117.28 189
117.30 157
117.32 168
117.34 157
117.36 157
117.38 144
117.40 158
117.42 155
117.44 139
117.46 139
117.48 156
117.50 157
117.52 130
117.54 123
117.56 158
117.58 137
117.60 134
117.62 123
117.64 146
117.66 163
117.68 115
117.70 148
117.72 135
117.74 135
117.76 134
117.78 125
117.80 135
117.82 116
117.84 118
117.86 102
117.88 115
117.90 106
117.92 111
117.94 114
117.96 111
117.98 112
118.00 101
118.02 108
118.04 91
118.06 105
118.08 118
118.10 103
118.12 109
118.14 102
118.16 101
118.18 92
118.20 109
118.22 128
118.24 116
118.26 103
118.28 99
118.30 98
118.32 89
118.34 113
118.36 91
118.38 102
118.40 115
118.42 81
118.44 118
118.46 98
118.48 115
118.50 111
118.52 95
118.54 93
118.56 106
118.58 110
118.60 93
118.62 81
118.64 98
118.66 89
118.68 89
118.70 76
118.72 97
118.74 81
118.76 96
118.78 86
118.80 103
118.82 110
118.84 104
118.86 102
118.88 95
118.90 85
118.92 86
118.94 100
118.96 74
118.98 87
119.00 94
119.02 77
119.04 84
119.06 93
119.08 100
119.10 80
119.12 96
119.14 107
119.16 98
119.18 105
119.20 103
119.22 105
119.24 71
119.26 78
119.28 90
119.30 91
119.32 86
119.34 87
119.36 89
119.38 92
119.40 97
119.42 98
119.44 90
119.46 79
119.48 93
119.50 76
119.52 72
119.54 87
119.56 87
119.58 105
119.60 90
119.62 95
119.64 81
119.66 90
119.68 95
119.70 94
119.72 81
119.74 85
119.76 82
119.78 84
119.80 89
119.82 78
119.84 86
119.86 79
119.88 93
119.90 87
119.92 103
119.94 77
119.96 95
119.98 94
120.00 90
120.02 90
120.04 99
120.06 99
120.08 107
120.10 95
120.12 106
120.14 95
120.16 126
120.18 95
120.20 94
120.22 114
120.24 83
120.26 84
120.28 99
120.30 123
120.32 106
120.34 106
120.36 109
120.38 103
120.40 98
120.42 107
120.44 94
120.46 99
120.48 110
120.50 105
120.52 103
120.54 118
120.56 120
120.58 104
120.60 129
120.62 111
120.64 123
120.66 128
120.68 111
120.70 112
120.72 119
120.74 120
120.76 117
120.78 144
120.80 149
120.82 129
120.84 134
120.86 131
120.88 144
120.90 159
120.92 154
120.94 140
120.96 134
120.98 117
121.00 145
121.02 149
121.04 156
121.06 134
121.08 169
121.10 176
121.12 185
121.14 184
121.16 175
121.18 173
121.20 174
121.22 216
121.24 197
121.26 177
121.28 188
121.30 185
121.32 175
121.34 202
121.36 189
121.38 209
121.40 213
121.42 197
121.44 213
121.46 205
121.48 224
121.50 205
121.52 209
121.54 202
121.56 194
121.58 198
121.60 213
121.62 211
121.64 227
121.66 220
121.68 233
121.70 206
121.72 209
121.74 185
121.76 212
121.78 222
121.80 216
121.82 229
121.84 230
121.86 198
121.88 198
121.90 224
121.92 186
121.94 193
121.96 198
121.98 180
122.00 186
122.02 198
122.04 210
122.06 184
122.08 187
122.10 185
122.12 194
122.14 172
122.16 152
122.18 186
122.20 169
122.22 169
122.24 163
122.26 157
122.28 156
122.30 174
122.32 156
122.34 154
122.36 149
122.38 165
122.40 151
122.42 165
122.44 109
122.46 123
122.48 134
122.50 145
122.52 144
122.54 131
122.56 131
122.58 119
122.60 114
122.62 117
122.64 106
122.66 126
122.68 120
122.70 104
122.72 105
122.74 128
122.76 107
122.78 111
122.80 107
122.82 114
122.84 115
122.86 98
122.88 93
122.90 98
122.92 100
122.94 103
122.96 102
122.98 81
123.00 107
123.02 88
123.04 85
123.06 83
123.08 83
123.10 91
123.12 86
123.14 96
123.16 101
123.18 90
123.20 100
123.22 79
123.24 107
123.26 84
123.28 88
123.30 92
123.32 75
123.34 88
123.36 107
123.38 94
123.40 69
123.42 71
123.44 79
123.46 68
123.48 84
123.50 86
123.52 63
123.54 69
123.56 78
123.58 80
123.60 71
123.62 79
123.64 70
123.66 79
123.68 69
123.70 98
123.72 78
123.74 81
123.76 63
123.78 78
123.80 73
123.82 72
123.84 79
123.86 73
123.88 80
123.90 74
123.92 61
123.94 79
123.96 76
123.98 85
124.00 67
124.02 87
124.04 92
124.06 101
124.08 78
124.10 80
124.12 67
124.14 73
124.16 84
124.18 74
124.20 86
124.22 83
124.24 80
124.26 80
124.28 79
124.30 69
124.32 85
124.34 76
124.36 74
124.38 71
124.40 67
124.42 72
124.44 82
124.46 71
124.48 79
124.50 64
124.52 65
124.54 83
124.56 71
124.58 88
124.60 81
124.62 72
124.64 91
124.66 83
124.68 76
124.70 84
124.72 69
124.74 88
124.76 83
124.78 85
124.80 87
124.82 84
124.84 76
124.86 80
124.88 84
124.90 88
124.92 81
124.94 97
124.96 105
124.98 81
125.00 87
